##TITLE=QM9S 000010 UV
##JCAMP-DX=5.00
##DATA TYPE=UV/VIS SPECTRUM
##ORIGIN=LLM_DMT QM9SMotifDataset test split
##$QM9_IDX=10
##$SPLIT_POSITION=0
##XUNITS=INDEX
##YUNITS=ARBITRARY UNITS
##FIRSTX=0
##LASTX=700
##NPOINTS=701
##XYDATA=(XY..XY)
0 0
1 0
2 0
3 0
4 0
5 0
6 0
7 0
8 0
9 0
10 0
11 0
12 0
13 0
14 0
15 0
16 0
17 0
18 0
19 0
20 0
21 0
22 0
23 0
24 0
25 0
26 0
27 0
28 0
29 0
30 0
31 0
32 0
33 0
34 0
35 0
36 0
37 0
38 0
39 0
40 0
41 0
42 0
43 0
44 0
45 0
46 0
47 0
48 0
49 0
50 0
51 0
52 0
53 0
54 0
55 0
56 0
57 0
58 0
59 0
60 0
61 0
62 0
63 0
64 0
65 0
66 0
67 0
68 0
69 0
70 0
71 0
72 0
73 0
74 0
75 0
76 0
77 0
78 0
79 0
80 0
81 0
82 0
83 0
84 0
85 0
86 0
87 0
88 0
89 0
90 0
91 0
92 0
93 0
94 0
95 0
96 0
97 0
98 0
99 0
100 0
101 0
102 0
103 0
104 0
105 0
106 0
107 0
108 0
109 0
110 0
111 0
112 5.1771934e-08
113 5.1771934e-08
114 5.1771934e-08
115 5.1771934e-08
116 5.1771934e-08
117 1.0354386e-07
118 1.0354386e-07
119 1.5531579e-07
120 1.5531579e-07
121 2.0708769e-07
122 2.5885961e-07
123 3.1063152e-07
124 4.141753e-07
125 4.6594718e-07
126 5.6949091e-07
127 6.7303466e-07
128 8.2835021e-07
129 9.836657e-07
130 1.1389811e-06
131 1.3460683e-06
132 1.6049271e-06
133 1.8637858e-06
134 2.1744158e-06
135 2.5368174e-06
136 2.8992188e-06
137 3.3133913e-06
138 3.779335e-06
139 4.2970496e-06
140 4.8665347e-06
141 5.4877905e-06
142 6.1608166e-06
143 6.8856129e-06
144 7.6104079e-06
145 8.4387439e-06
146 9.267078e-06
147 1.0147181e-05
148 1.1027282e-05
149 1.1959152e-05
150 1.2942792e-05
151 1.3874657e-05
152 1.4858291e-05
153 1.5841924e-05
154 1.6773783e-05
155 1.7705641e-05
156 1.8585728e-05
157 1.9414043e-05
158 2.0190586e-05
159 2.0915359e-05
160 2.1536591e-05
161 2.2106055e-05
162 2.2571978e-05
163 2.2986131e-05
164 2.3244977e-05
165 2.3400285e-05
166 2.3503822e-05
167 2.3452054e-05
168 2.3296747e-05
169 2.3037901e-05
170 2.2675516e-05
171 2.2209593e-05
172 2.1640129e-05
173 2.1018897e-05
174 2.0294125e-05
175 1.9517582e-05
176 1.8689267e-05
177 1.7809181e-05
178 1.6929092e-05
179 1.5997233e-05
180 1.5013602e-05
181 1.4029968e-05
182 1.3098102e-05
183 1.2114464e-05
184 1.1182594e-05
185 1.0302493e-05
186 9.3706194e-06
187 8.5422853e-06
188 7.7657214e-06
189 6.9891553e-06
190 6.2643589e-06
191 5.5913333e-06
192 4.9700775e-06
193 4.4005924e-06
194 3.882878e-06
195 3.4169343e-06
196 2.9509904e-06
197 2.588589e-06
198 2.2261875e-06
199 1.9155575e-06
200 1.6566988e-06
201 1.39784e-06
202 1.1907529e-06
203 1.0354375e-06
204 8.2835021e-07
205 7.2480651e-07
206 5.6949091e-07
207 5.1771906e-07
208 4.141753e-07
209 3.1063152e-07
210 2.5885961e-07
211 2.0708769e-07
212 1.5531579e-07
213 1.5531579e-07
214 1.0354386e-07
215 1.0354386e-07
216 5.1771934e-08
217 5.1771934e-08
218 5.1771934e-08
219 5.1771934e-08
220 5.1771934e-08
221 0
222 0
223 0
224 0
225 0
226 0
227 0
228 0
229 0
230 0
231 0
232 0
233 0
234 0
235 0
236 0
237 0
238 0
239 0
240 0
241 0
242 0
243 0
244 0
245 0
246 0
247 0
248 0
249 0
250 0
251 5.1771934e-08
252 5.1771934e-08
253 5.1771934e-08
254 5.1771934e-08
255 1.0354386e-07
256 1.0354386e-07
257 1.5531579e-07
258 2.0708769e-07
259 3.1063152e-07
260 4.141753e-07
261 5.6949091e-07
262 7.2480651e-07
263 9.836657e-07
264 1.2425247e-06
265 1.6566988e-06
266 2.1226442e-06
267 2.7439039e-06
268 3.5204773e-06
269 4.5559063e-06
270 5.798418e-06
271 7.351553e-06
272 9.267078e-06
273 1.164853e-05
274 1.4547671e-05
275 1.8119799e-05
276 2.2468439e-05
277 2.7697102e-05
278 3.4012832e-05
279 4.1570875e-05
280 5.0578237e-05
281 6.1241881e-05
282 7.3872274e-05
283 8.8624511e-05
284 0.00010586071
285 0.00012583935
286 0.00014892232
287 0.00017547142
288 0.0002057447
289 0.00024015538
290 0.00027901286
291 0.00032267813
292 0.00037146005
293 0.00042566727
294 0.00048555632
295 0.00055138336
296 0.00062319741
297 0.0007012022
298 0.00078539451
299 0.00087566726
300 0.00097196508
301 0.0010740258
302 0.0011814837
303 0.0012939221
304 0.0014108726
305 0.0015317124
306 0.0016558194
307 0.0017823658
308 0.001910731
309 0.0020400372
310 0.0021695627
311 0.0022985858
312 0.0024264383
313 0.0025526574
314 0.0026767817
315 0.0027987103
316 0.002918496
317 0.0030364494
318 0.0031532401
319 0.0032698964
320 0.0033877031
321 0.0035085077
322 0.0036345155
323 0.0037682881
324 0.0039129481
325 0.0040719728
326 0.0042491392
327 0.0044486793
328 0.0046750689
329 0.0049329754
330 0.0052273558
331 0.0055630421
332 0.0059448415
333 0.0063775303
334 0.006865338
335 0.0074123032
336 0.0080216583
337 0.008696083
338 0.0094373506
339 0.010246332
340 0.011122796
341 0.012065225
342 0.013071079
343 0.014136352
344 0.015255955
345 0.01642333
346 0.017630879
347 0.018869778
348 0.020130165
349 0.021401493
350 0.022672351
351 0.02393093
352 0.025165303
353 0.026363388
354 0.027513374
355 0.02860415
356 0.029625174
357 0.030567037
358 0.031421438
359 0.032181725
360 0.032842677
361 0.033400953
362 0.03385504
363 0.034205351
364 0.034454346
365 0.034606397
366 0.034667727
367 0.034646407
368 0.034552086
369 0.034395851
370 0.034189992
371 0.033947743
372 0.033682987
373 0.033409823
374 0.033142533
375 0.032894898
376 0.032680161
377 0.032510381
378 0.032396562
379 0.032348078
380 0.03237249
381 0.032475505
382 0.032660667
383 0.032929454
384 0.033281039
385 0.033712544
386 0.034218989
387 0.034793422
388 0.035427131
389 0.036109891
390 0.03683006
391 0.037575059
392 0.038331434
393 0.039085362
394 0.039822675
395 0.040529504
396 0.041192148
397 0.041797787
398 0.042334344
399 0.04279092
400 0.043157913
401 0.043427359
402 0.04359274
403 0.043649398
404 0.043594565
405 0.043427311
406 0.04314854
407 0.042761035
408 0.04226958
409 0.041680358
410 0.041001406
411 0.040242068
412 0.039412901
413 0.038525533
414 0.037592389
415 0.036626253
416 0.035640322
417 0.034647509
418 0.033660661
419 0.032691687
420 0.03175192
421 0.030851301
422 0.029998627
423 0.029201059
424 0.02846414
425 0.02779163
426 0.027185632
427 0.026646374
428 0.02617245
429 0.025760757
430 0.025406932
431 0.025105106
432 0.024848495
433 0.024629544
434 0.024439998
435 0.024271321
436 0.024114871
437 0.023962237
438 0.023805285
439 0.023636509
440 0.023449127
441 0.023237128
442 0.022995563
443 0.022720505
444 0.022409037
445 0.02205931
446 0.021670591
447 0.021242922
448 0.020777473
449 0.020276098
450 0.019741297
451 0.019176215
452 0.018584406
453 0.017969733
454 0.017336283
455 0.016688107
456 0.016029382
457 0.015364009
458 0.014695813
459 0.014028342
460 0.013364865
461 0.012708115
462 0.012060794
463 0.011425014
464 0.010802693
465 0.010195359
466 0.0096042911
467 0.0090304185
468 0.0084745735
469 0.0079373838
470 0.0074191741
471 0.0069203204
472 0.0064410423
473 0.0059814048
474 0.005541523
475 0.0051214057
476 0.0047210087
477 0.0043403353
478 0.0039793351
479 0.0036378012
480 0.0033156255
481 0.0030126453
482 0.0027285926
483 0.0024631445
484 0.0022159743
485 0.0019866496
486 0.0017746834
487 0.0015795333
488 0.0014006032
489 0.0012371903
490 0.0010885891
491 0.00095409167
492 0.00083288434
493 0.00072409958
494 0.00062691962
495 0.00054057664
496 0.00046414617
497 0.00039685759
498 0.00033783578
499 0.00028641144
500 0.00024170768
501 0.00020310558
502 0.00016993402
503 0.00014157317
504 0.00011740288
505 9.6958014e-05
506 7.9669706e-05
507 6.5227745e-05
508 5.311476e-05
509 4.3072116e-05
510 3.4789347e-05
511 2.7955946e-05
512 2.23649e-05
513 1.7809181e-05
514 1.4133509e-05
515 1.1130824e-05
516 8.749369e-06
517 6.8338418e-06
518 5.3324766e-06
519 4.1417352e-06
520 3.2098483e-06
521 2.4332742e-06
522 1.8637858e-06
523 1.39784e-06
524 1.0872093e-06
525 8.2835021e-07
526 6.2126281e-07
527 4.6594718e-07
528 3.624034e-07
529 2.5885961e-07
530 2.0708769e-07
531 1.5531579e-07
532 1.0354386e-07
533 5.1771934e-08
534 5.1771934e-08
535 5.1771934e-08
536 5.1771934e-08
537 0
538 0
539 0
540 0
541 0
542 0
543 0
544 0
545 0
546 0
547 0
548 0
549 0
550 0
551 0
552 0
553 0
554 0
555 0
556 0
557 0
558 0
559 0
560 0
561 0
562 0
563 0
564 0
565 0
566 0
567 0
568 0
569 0
570 0
571 0
572 0
573 0
574 0
575 0
576 0
577 0
578 0
579 0
580 0
581 0
582 0
583 0
584 0
585 0
586 0
587 0
588 0
589 0
590 0
591 0
592 0
593 0
594 0
595 0
596 0
597 0
598 0
599 0
600 0
601 0
602 0
603 0
604 0
605 0
606 0
607 0
608 0
609 0
610 0
611 0
612 0
613 0
614 0
615 0
616 0
617 0
618 0
619 0
620 0
621 0
622 0
623 0
624 0
625 0
626 0
627 0
628 0
629 0
630 0
631 0
632 0
633 0
634 0
635 0
636 0
637 0
638 0
639 0
640 0
641 0
642 0
643 0
644 0
645 0
646 0
647 0
648 0
649 0
650 0
651 0
652 0
653 0
654 0
655 0
656 0
657 0
658 0
659 0
660 0
661 0
662 0
663 0
664 0
665 0
666 0
667 0
668 0
669 0
670 0
671 0
672 0
673 0
674 0
675 0
676 0
677 0
678 0
679 0
680 0
681 0
682 0
683 0
684 0
685 0
686 0
687 0
688 0
689 0
690 0
691 0
692 0
693 0
694 0
695 0
696 0
697 0
698 0
699 0
700 0
##END=
