##TITLE=QM9S 000010 IR
##JCAMP-DX=5.00
##DATA TYPE=INFRARED SPECTRUM
##ORIGIN=LLM_DMT QM9SMotifDataset test split
##$QM9_IDX=10
##$SPLIT_POSITION=0
##XUNITS=INDEX
##YUNITS=ARBITRARY UNITS
##FIRSTX=0
##LASTX=3500
##NPOINTS=3501
##XYDATA=(XY..XY)
0 1.0103564
1 0.96172225
2 0.91154921
3 0.86141545
4 0.81241012
5 0.76523566
6 0.72030926
7 0.67784697
8 0.63792783
9 0.60054052
10 0.56561583
11 0.5330497
12 0.50271809
13 0.47448733
14 0.44822127
15 0.42378503
16 0.40104818
17 0.37988663
18 0.36018294
19 0.34182736
20 0.32471743
21 0.3087582
22 0.2938619
23 0.27994743
24 0.26694003
25 0.25477093
26 0.24337696
27 0.23269998
28 0.22268666
29 0.21328799
30 0.20445894
31 0.19615802
32 0.18834747
33 0.18099213
34 0.17406003
35 0.16752157
36 0.16134952
37 0.15551884
38 0.1500065
39 0.14479114
40 0.13985316
41 0.13517441
42 0.13073821
43 0.12652887
44 0.1225322
45 0.11873494
46 0.11512468
47 0.11169012
48 0.10842054
49 0.10530621
50 0.10233793
51 0.09950719
52 0.096806124
53 0.094227292
54 0.091763869
55 0.089409381
56 0.08715792
57 0.085003845
58 0.082941957
59 0.0809673
60 0.079075336
61 0.077261768
62 0.075522572
63 0.073854007
64 0.072252482
65 0.070714675
66 0.069237486
67 0.067817979
68 0.066453345
69 0.065141007
70 0.063878551
71 0.062663592
72 0.061493985
73 0.06036767
74 0.059282694
75 0.058237199
76 0.057229526
77 0.056257941
78 0.055320963
79 0.054417085
80 0.053544872
81 0.052703094
82 0.051890463
83 0.051105764
84 0.050347909
85 0.049615793
86 0.048908439
87 0.048224811
88 0.047564093
89 0.046925329
90 0.046307728
91 0.045710493
92 0.045132831
93 0.044574119
94 0.044033583
95 0.043510642
96 0.043004654
97 0.042514976
98 0.042041101
99 0.041582469
100 0.041138608
101 0.040708955
102 0.040293079
103 0.039890502
104 0.039500881
105 0.039123733
106 0.038758662
107 0.038405322
108 0.038063362
109 0.037732426
110 0.037412167
111 0.037102271
112 0.036802519
113 0.036512513
114 0.036232073
115 0.035960842
116 0.035698645
117 0.035445213
118 0.03520032
119 0.034963746
120 0.034735262
121 0.034514647
122 0.03430181
123 0.034096431
124 0.033898473
125 0.033707611
126 0.033523805
127 0.033346877
128 0.033176634
129 0.033012949
130 0.032855731
131 0.032704793
132 0.03256005
133 0.032421406
134 0.032288678
135 0.032161821
136 0.0320407
137 0.031925268
138 0.031815387
139 0.031711016
140 0.031612009
141 0.03151837
142 0.031429961
143 0.031346787
144 0.031268701
145 0.031195709
146 0.031127766
147 0.031064775
148 0.03100674
149 0.030953567
150 0.030905258
151 0.030861814
152 0.030823139
153 0.030789236
154 0.030760152
155 0.030735794
156 0.030716162
157 0.030701257
158 0.030691126
159 0.030685725
160 0.030685049
161 0.030689197
162 0.030698074
163 0.030711822
164 0.030730344
165 0.030753786
166 0.030782146
167 0.030815471
168 0.030853808
169 0.030897206
170 0.030945757
171 0.03099951
172 0.031058606
173 0.031123042
174 0.031192962
175 0.031268459
176 0.031349678
177 0.031436704
178 0.031529684
179 0.031628758
180 0.031734116
181 0.031845845
182 0.031964231
183 0.032089364
184 0.032221578
185 0.032360956
186 0.032507882
187 0.032662537
188 0.032825202
189 0.032996252
190 0.033175964
191 0.033364758
192 0.03356291
193 0.033770937
194 0.033989299
195 0.034218416
196 0.034458887
197 0.034711223
198 0.034976166
199 0.035254315
200 0.035546403
201 0.035853311
202 0.036175869
203 0.036515128
204 0.036872055
205 0.037247885
206 0.037643898
207 0.038061511
208 0.038502224
209 0.038967859
210 0.039460227
211 0.039981548
212 0.040534079
213 0.041120525
214 0.041743755
215 0.04240704
216 0.043114129
217 0.043869119
218 0.044676661
219 0.04554205
220 0.046471316
221 0.047471143
222 0.048549421
223 0.049714934
224 0.050977934
225 0.052350093
226 0.053844951
227 0.055478185
228 0.05726805
229 0.059235718
230 0.06140599
231 0.063807935
232 0.066475734
233 0.069449589
234 0.072776899
235 0.076513648
236 0.080725715
237 0.085490644
238 0.090898931
239 0.097055614
240 0.1040801
241 0.11210521
242 0.12127188
243 0.13171852
244 0.14356026
245 0.15685301
246 0.17153707
247 0.18735702
248 0.20376459
249 0.21983288
250 0.23424242
251 0.24541858
252 0.25186726
253 0.25262958
254 0.24763601
255 0.23773572
256 0.22438097
257 0.20916922
258 0.19347867
259 0.17830005
260 0.16423421
261 0.15157165
262 0.14039241
263 0.13064982
264 0.12223168
265 0.11499868
266 0.10880721
267 0.10352149
268 0.099018998
269 0.09519235
270 0.091948912
271 0.08920981
272 0.086908065
273 0.084987327
274 0.083400048
275 0.08210621
276 0.081072293
277 0.080269955
278 0.079675406
279 0.079268746
280 0.079033174
281 0.078954615
282 0.07902126
283 0.079223409
284 0.079552956
285 0.080003358
286 0.080569252
287 0.081246488
288 0.082031898
289 0.082923263
290 0.083919078
291 0.085018747
292 0.086222157
293 0.087530091
294 0.088943794
295 0.090465158
296 0.092096731
297 0.093841508
298 0.095703252
299 0.097686186
300 0.099795163
301 0.1020358
302 0.10441411
303 0.10693718
304 0.10961248
305 0.11244846
306 0.11545435
307 0.11864036
308 0.12201759
309 0.12559819
310 0.12939557
311 0.13342431
312 0.13770036
313 0.14224125
314 0.14706601
315 0.1521956
316 0.15765287
317 0.16346289
318 0.16965304
319 0.17625348
320 0.1832971
321 0.19082007
322 0.19886205
323 0.20746648
324 0.21668111
325 0.2265584
326 0.23715591
327 0.24853666
328 0.2607699
329 0.2739315
330 0.28810447
331 0.30337945
332 0.31985539
333 0.33763963
334 0.35684851
335 0.37760693
336 0.40004867
337 0.42431453
338 0.45055139
339 0.47890854
340 0.50953293
341 0.54256159
342 0.57810944
343 0.61625224
344 0.65700066
345 0.70026267
346 0.74579149
347 0.79311365
348 0.84143835
349 0.8895517
350 0.93572056
351 0.97765553
352 1.0126115
353 1.037711
354 1.0505012
355 1.0495938
356 1.0350927
357 1.0085595
358 0.97254223
359 0.92992908
360 0.88341981
361 0.83523339
362 0.78703105
363 0.73996568
364 0.69478095
365 0.65191561
366 0.61159247
367 0.57388711
368 0.53877848
369 0.50618368
370 0.47598371
371 0.44803914
372 0.42220166
373 0.39832151
374 0.37625182
375 0.35585204
376 0.33698907
377 0.3195385
378 0.3033846
379 0.28842062
380 0.27454829
381 0.26167747
382 0.24972576
383 0.23861767
384 0.22828451
385 0.21866351
386 0.20969756
387 0.20133442
388 0.19352663
389 0.18623088
390 0.17940764
391 0.17302091
392 0.16703779
393 0.16142814
394 0.15616463
395 0.15122205
396 0.14657743
397 0.14220972
398 0.13809955
399 0.13422926
400 0.13058256
401 0.12714449
402 0.12390129
403 0.1208403
404 0.11794979
405 0.11521903
406 0.11263812
407 0.11019782
408 0.10788966
409 0.10570573
410 0.10363887
411 0.10168225
412 0.099829644
413 0.098075181
414 0.096413545
415 0.094839677
416 0.09334895
417 0.091937013
418 0.09059982
419 0.089333564
420 0.088134743
421 0.087000109
422 0.085926607
423 0.084911339
424 0.083951637
425 0.083045021
426 0.082189173
427 0.08138185
428 0.080621071
429 0.079904862
430 0.079231478
431 0.078599259
432 0.078006566
433 0.077451967
434 0.076934077
435 0.076451659
436 0.07600338
437 0.075588226
438 0.075205065
439 0.074853033
440 0.074531063
441 0.07423836
442 0.073974103
443 0.073737554
444 0.073527977
445 0.073344797
446 0.073187396
447 0.073055141
448 0.072947577
449 0.072864279
450 0.072804742
451 0.072768576
452 0.072755441
453 0.07276503
454 0.072796993
455 0.072851107
456 0.07292714
457 0.073024906
458 0.07314422
459 0.073284931
460 0.073446937
461 0.073630154
462 0.073834568
463 0.074060068
464 0.074306689
465 0.074574493
466 0.074863449
467 0.075173713
468 0.075505301
469 0.075858369
470 0.076233089
471 0.076629624
472 0.077048205
473 0.077488996
474 0.077952273
475 0.078438349
476 0.078947537
477 0.079480097
478 0.080036469
479 0.08061707
480 0.081222229
481 0.081852444
482 0.082508251
483 0.083190084
484 0.083898596
485 0.084634282
486 0.085397772
487 0.086189769
488 0.087010957
489 0.087862067
490 0.088743873
491 0.089657217
492 0.090602972
493 0.091582023
494 0.092595346
495 0.093643919
496 0.09472888
497 0.095851332
498 0.097012468
499 0.098213457
500 0.099455766
501 0.1007406
502 0.10206953
503 0.10344405
504 0.10486574
505 0.10633636
506 0.10785764
507 0.10943148
508 0.11105981
509 0.11274472
510 0.11448851
511 0.11629335
512 0.11816167
513 0.12009613
514 0.12209936
515 0.12417427
516 0.12632377
517 0.12855108
518 0.13085957
519 0.13325274
520 0.1357343
521 0.13830827
522 0.14097866
523 0.14375012
524 0.14662708
525 0.14961459
526 0.15271783
527 0.15594235
528 0.15929401
529 0.16277902
530 0.16640399
531 0.17017587
532 0.17410211
533 0.17819053
534 0.18244958
535 0.1868881
536 0.19151555
537 0.19634201
538 0.20137824
539 0.20663556
540 0.21212614
541 0.21786296
542 0.22385976
543 0.23013143
544 0.23669344
545 0.24356276
546 0.25075725
547 0.25829607
548 0.26619974
549 0.27449018
550 0.28319073
551 0.2923266
552 0.30192462
553 0.3120136
554 0.32262433
555 0.33379006
556 0.34554607
557 0.35793057
558 0.37098429
559 0.38475114
560 0.3992781
561 0.41461563
562 0.43081799
563 0.44794333
564 0.46605396
565 0.48521692
566 0.50550371
567 0.52699113
568 0.54976124
569 0.57390118
570 0.59950393
571 0.62666762
572 0.65549535
573 0.68609458
574 0.7185756
575 0.75304955
576 0.78962511
577 0.82840276
578 0.86946696
579 0.9128744
580 0.95863539
581 1.0066878
582 1.0568584
583 1.1088101
584 1.1619685
585 1.2154297
586 1.2678574
587 1.3173927
588 1.3616337
589 1.3977654
590 1.4229207
591 1.4347641
592 1.4321234
593 1.4153619
594 1.3862716
595 1.3475472
596 1.3021264
597 1.2526662
598 1.201267
599 1.149417
600 1.0980864
601 1.0478846
602 0.99920905
603 0.95233798
604 0.90746832
605 0.86472535
606 0.82416761
607 0.78579634
608 0.74956942
609 0.71541464
610 0.68324119
611 0.65294832
612 0.62443119
613 0.59758526
614 0.57230824
615 0.54850209
616 0.52607328
617 0.50493377
618 0.485001
619 0.46619719
620 0.44845006
621 0.43169203
622 0.41586012
623 0.40089574
624 0.38674432
625 0.37335494
626 0.36068019
627 0.34867617
628 0.33730179
629 0.32651886
630 0.31629169
631 0.3065871
632 0.29737425
633 0.28862426
634 0.28031015
635 0.27240682
636 0.26489091
637 0.25774035
638 0.25093472
639 0.24445488
640 0.23828299
641 0.23240222
642 0.22679691
643 0.22145239
644 0.21635491
645 0.2114915
646 0.2068501
647 0.20241942
648 0.19818868
649 0.19414799
650 0.19028793
651 0.18659964
652 0.18307483
653 0.17970574
654 0.17648493
655 0.17340553
656 0.17046107
657 0.16764535
658 0.16495258
659 0.16237743
660 0.15991454
661 0.15755926
662 0.15530688
663 0.1531532
664 0.151094
665 0.1491255
666 0.14724405
667 0.14544621
668 0.1437287
669 0.14208847
670 0.14052257
671 0.1390283
672 0.137603
673 0.13624424
674 0.13494965
675 0.13371707
676 0.13254437
677 0.13142961
678 0.1303709
679 0.12936644
680 0.1284146
681 0.12751377
682 0.12666243
683 0.12585922
684 0.12510277
685 0.12439185
686 0.12372521
687 0.12310176
688 0.1225204
689 0.12198014
690 0.12148011
691 0.12101931
692 0.12059697
693 0.12021229
694 0.11986464
695 0.11955319
696 0.11927737
697 0.11903655
698 0.11883025
699 0.11865793
700 0.11851912
701 0.11841342
702 0.11834037
703 0.11829965
704 0.11829101
705 0.11831408
706 0.11836868
707 0.11845457
708 0.11857153
709 0.1187195
710 0.11889829
711 0.11910782
712 0.11934813
713 0.11961912
714 0.11992082
715 0.12025327
716 0.12061654
717 0.12101077
718 0.12143607
719 0.1218926
720 0.12238059
721 0.12290031
722 0.1234519
723 0.12403578
724 0.12465218
725 0.12530157
726 0.12598428
727 0.1267008
728 0.12745154
729 0.12823702
730 0.12905781
731 0.12991452
732 0.13080771
733 0.1317381
734 0.13270637
735 0.1337133
736 0.13475966
737 0.13584633
738 0.13697417
739 0.13814415
740 0.1393573
741 0.14061463
742 0.14191726
743 0.14326639
744 0.1446633
745 0.14610921
746 0.14760552
747 0.14915374
748 0.15075533
749 0.15241191
750 0.15412518
751 0.15589693
752 0.15772903
753 0.15962341
754 0.16158219
755 0.16360749
756 0.1657017
757 0.16786718
758 0.17010649
759 0.17242233
760 0.17481746
761 0.17729494
762 0.17985792
763 0.18250963
764 0.18525368
765 0.18809366
766 0.19103354
767 0.19407733
768 0.19722955
769 0.20049459
770 0.2038774
771 0.20738314
772 0.21101728
773 0.21478547
774 0.21869387
775 0.22274895
776 0.22695754
777 0.23132695
778 0.23586485
779 0.24057943
780 0.24547942
781 0.25057411
782 0.25587332
783 0.26138756
784 0.26712802
785 0.27310652
786 0.27933583
787 0.28582951
788 0.29260194
789 0.29966864
790 0.30704609
791 0.31475195
792 0.3228052
793 0.33122596
794 0.34003609
795 0.34925869
796 0.35891891
797 0.36904338
798 0.37966099
799 0.39080271
800 0.40250179
801 0.414794
802 0.42771792
803 0.44131514
804 0.4556303
805 0.47071162
806 0.48661113
807 0.50338465
808 0.52109277
809 0.53980035
810 0.55957747
811 0.58049947
812 0.60264719
813 0.62610734
814 0.65097278
815 0.67734188
816 0.70531905
817 0.73501366
818 0.76653862
819 0.80000973
820 0.83554035
821 0.87323838
822 0.91319734
823 0.95548499
824 1.0001259
825 1.0470765
826 1.0961868
827 1.1471492
828 1.199427
829 1.2521631
830 1.3040771
831 1.3533714
832 1.3977007
833 1.4342833
834 1.4602385
835 1.4731535
836 1.4717215
837 1.4561499
838 1.428102
839 1.3902073
840 1.3454163
841 1.2964787
842 1.245663
843 1.1946863
844 1.1447653
845 1.0967155
846 1.0510536
847 1.0080839
848 0.9679653
849 0.93075955
850 0.89646661
851 0.86504781
852 0.83644283
853 0.81058061
854 0.78738731
855 0.76679134
856 0.74872732
857 0.73313862
858 0.71997941
859 0.70921594
860 0.70082802
861 0.69480985
862 0.69117093
863 0.68993717
864 0.69115078
865 0.69487143
866 0.70117515
867 0.71015388
868 0.72191256
869 0.73656523
870 0.75422657
871 0.7749995
872 0.79895455
873 0.82609975
874 0.85633433
875 0.88938504
876 0.92472029
877 0.9614464
878 0.9982034
879 1.0331014
880 1.0637739
881 1.0876304
882 1.1023527
883 1.1065208
884 1.1000997
885 1.0845071
886 1.0622143
887 1.036109
888 1.0089263
889 0.98291087
890 0.95971286
891 0.94043171
892 0.9257254
893 0.91593039
894 0.91116589
895 0.91141444
896 0.91658074
897 0.92653078
898 0.94111603
899 0.96018642
900 0.98359358
901 1.0111865
902 1.0427986
903 1.0782263
904 1.1171944
905 1.1593097
906 1.2039956
907 1.2504102
908 1.2973551
909 1.3431982
910 1.3858628
911 1.4229606
912 1.4521459
913 1.4716799
914 1.4810271
915 1.4811503
916 1.4742428
917 1.4629363
918 1.4493243
919 1.4342353
920 1.4170753
921 1.3963044
922 1.3703159
923 1.3382449
924 1.3003129
925 1.2576455
926 1.2118161
927 1.1644089
928 1.1167598
929 1.0698642
930 1.0243956
931 0.98076677
932 0.93919885
933 0.89978105
934 0.86251533
935 0.82734972
936 0.79420006
937 0.76296508
938 0.73353583
939 0.70580173
940 0.67965424
941 0.65498936
942 0.63170856
943 0.6097191
944 0.58893466
945 0.56927502
946 0.55066568
947 0.53303766
948 0.51632732
949 0.50047559
950 0.48542795
951 0.47113392
952 0.45754695
953 0.44462359
954 0.43232387
955 0.42061055
956 0.40944925
957 0.39880776
958 0.38865635
959 0.37896729
960 0.36971477
961 0.36087468
962 0.35242456
963 0.34434342
964 0.33661169
965 0.32921103
966 0.32212436
967 0.31533554
968 0.30882964
969 0.30259246
970 0.29661071
971 0.2908721
972 0.28536487
973 0.28007796
974 0.27500117
975 0.27012467
976 0.26543936
977 0.26093653
978 0.25660804
979 0.25244623
980 0.24844381
981 0.24459395
982 0.24089013
983 0.2373262
984 0.23389643
985 0.23059528
986 0.22741751
987 0.22435828
988 0.22141282
989 0.21857677
990 0.2158459
991 0.2132162
992 0.21068394
993 0.20824546
994 0.20589736
995 0.20363639
996 0.20145948
997 0.19936363
998 0.19734611
999 0.19540422
1000 0.19353545
1001 0.19173734
1002 0.19000764
1003 0.18834411
1004 0.18674465
1005 0.18520735
1006 0.18373021
1007 0.18231146
1008 0.18094946
1009 0.17964238
1010 0.17838874
1011 0.17718703
1012 0.17603587
1013 0.17493379
1014 0.17387953
1015 0.17287187
1016 0.17190956
1017 0.17099151
1018 0.17011659
1019 0.16928381
1020 0.16849214
1021 0.16774061
1022 0.16702838
1023 0.16635452
1024 0.16571827
1025 0.16511884
1026 0.1645554
1027 0.16402733
1028 0.16353388
1029 0.16307449
1030 0.16264842
1031 0.16225515
1032 0.16189416
1033 0.16156481
1034 0.16126671
1035 0.16099931
1036 0.16076212
1037 0.1605548
1038 0.16037686
1039 0.160228
1040 0.16010781
1041 0.16001588
1042 0.15995194
1043 0.15991573
1044 0.15990691
1045 0.15992522
1046 0.15997043
1047 0.16004227
1048 0.16014057
1049 0.16026512
1050 0.16041572
1051 0.16059221
1052 0.16079444
1053 0.16102234
1054 0.1612756
1055 0.16155435
1056 0.16185839
1057 0.16218759
1058 0.16254197
1059 0.16292146
1060 0.163326
1061 0.16375563
1062 0.16421026
1063 0.16468993
1064 0.16519462
1065 0.1657244
1066 0.16627933
1067 0.16685939
1068 0.1674647
1069 0.16809534
1070 0.16875137
1071 0.16943292
1072 0.1701401
1073 0.170873
1074 0.17163183
1075 0.17241666
1076 0.17322768
1077 0.17406513
1078 0.17492911
1079 0.17581981
1080 0.17673758
1081 0.1776825
1082 0.17865485
1083 0.17965487
1084 0.18068288
1085 0.18173908
1086 0.18282382
1087 0.18393734
1088 0.18508005
1089 0.18625213
1090 0.18745407
1091 0.18868616
1092 0.18994874
1093 0.19124219
1094 0.19256701
1095 0.19392352
1096 0.19531217
1097 0.19673339
1098 0.19818765
1099 0.19967549
1100 0.20119727
1101 0.20275356
1102 0.20434491
1103 0.20597184
1104 0.20763493
1105 0.20933464
1106 0.21107171
1107 0.2128467
1108 0.21466017
1109 0.2165129
1110 0.21840541
1111 0.22033852
1112 0.22231288
1113 0.22432925
1114 0.22638839
1115 0.22849102
1116 0.23063795
1117 0.23283009
1118 0.23506816
1119 0.23735313
1120 0.23968582
1121 0.24206726
1122 0.24449831
1123 0.24697998
1124 0.24951327
1125 0.25209922
1126 0.25473893
1127 0.25743335
1128 0.26018384
1129 0.26299143
1130 0.26585728
1131 0.26878265
1132 0.2717689
1133 0.27481723
1134 0.27792895
1135 0.28110558
1136 0.28434843
1137 0.28765896
1138 0.29103869
1139 0.2944892
1140 0.29801211
1141 0.30160895
1142 0.30528155
1143 0.30903152
1144 0.31286067
1145 0.31677097
1146 0.32076415
1147 0.3248423
1148 0.32900739
1149 0.33326146
1150 0.33760676
1151 0.34204534
1152 0.34657961
1153 0.35121191
1154 0.35594457
1155 0.36078009
1156 0.36572111
1157 0.37077028
1158 0.37593025
1159 0.38120398
1160 0.3865943
1161 0.39210418
1162 0.39773682
1163 0.40349537
1164 0.40938318
1165 0.41540363
1166 0.42156029
1167 0.4278568
1168 0.43429706
1169 0.4408848
1170 0.44762421
1171 0.45451939
1172 0.46157467
1173 0.46879461
1174 0.47618389
1175 0.48374715
1176 0.49148965
1177 0.49941635
1178 0.50753278
1179 0.5158444
1180 0.52435708
1181 0.53307682
1182 0.54200983
1183 0.5511626
1184 0.56054199
1185 0.57015496
1186 0.58000898
1187 0.59011143
1188 0.60047048
1189 0.6110943
1190 0.62199169
1191 0.63317168
1192 0.64464355
1193 0.65641737
1194 0.66850346
1195 0.68091261
1196 0.69365633
1197 0.70674646
1198 0.72019553
1199 0.73401654
1200 0.74822378
1201 0.76283133
1202 0.77785486
1203 0.79331034
1204 0.80921525
1205 0.82558721
1206 0.84244567
1207 0.85981089
1208 0.87770426
1209 0.89614862
1210 0.91516817
1211 0.93478888
1212 0.95503807
1213 0.97594512
1214 0.99754125
1215 1.01986
1216 1.0429373
1217 1.0668111
1218 1.0915227
1219 1.1171162
1220 1.1436387
1221 1.1711413
1222 1.1996783
1223 1.2293084
1224 1.2600942
1225 1.2921029
1226 1.3254066
1227 1.3600814
1228 1.3962082
1229 1.4338715
1230 1.4731588
1231 1.5141588
1232 1.5569589
1233 1.6016403
1234 1.648272
1235 1.6969001
1236 1.747533
1237 1.8001183
1238 1.8545111
1239 1.9104258
1240 1.9673728
1241 2.0245731
1242 2.0808573
1243 2.1345665
1244 2.1834929
1245 2.224937
1246 2.2559655
1247 2.2739148
1248 2.2770343
1249 2.2650027
1250 2.2390308
1251 2.2014871
1252 2.1552675
1253 2.1032124
1254 2.0477464
1255 1.9907507
1256 1.9335831
1257 1.8771694
1258 1.8221058
1259 1.7687523
1260 1.7173048
1261 1.6678486
1262 1.6203967
1263 1.5749164
1264 1.5313463
1265 1.4896092
1266 1.4496195
1267 1.4112887
1268 1.3745285
1269 1.3392527
1270 1.305379
1271 1.2728293
1272 1.2415295
1273 1.2114106
1274 1.1824083
1275 1.154462
1276 1.1275154
1277 1.1015164
1278 1.0764161
1279 1.0521693
1280 1.0287335
1281 1.0060694
1282 0.9841401
1283 0.96291119
1284 0.94235045
1285 0.92242789
1286 0.90311509
1287 0.88438565
1288 0.86621475
1289 0.84857881
1290 0.83145601
1291 0.81482536
1292 0.79866737
1293 0.78296351
1294 0.76769632
1295 0.75284904
1296 0.73840618
1297 0.72435284
1298 0.71067464
1299 0.69735837
1300 0.6843912
1301 0.67176092
1302 0.6594559
1303 0.64746517
1304 0.63577807
1305 0.62438452
1306 0.61327505
1307 0.60244036
1308 0.59187156
1309 0.58156031
1310 0.57149845
1311 0.56167823
1312 0.55209219
1313 0.54273319
1314 0.53359437
1315 0.52466911
1316 0.5159511
1317 0.50743419
1318 0.49911246
1319 0.49098036
1320 0.48303246
1321 0.4752633
1322 0.467668
1323 0.46024153
1324 0.45297936
1325 0.44587675
1326 0.43892941
1327 0.43213299
1328 0.42548352
1329 0.41897693
1330 0.41260946
1331 0.40637735
1332 0.40027696
1333 0.39430493
1334 0.38845792
1335 0.38273248
1336 0.37712559
1337 0.37163424
1338 0.3662554
1339 0.36098614
1340 0.35582381
1341 0.35076576
1342 0.34580913
1343 0.34095162
1344 0.33619058
1345 0.33152387
1346 0.32694894
1347 0.32246366
1348 0.31806582
1349 0.31375331
1350 0.30952406
1351 0.30537608
1352 0.30130741
1353 0.29731619
1354 0.29340059
1355 0.28955877
1356 0.28578904
1357 0.28208983
1358 0.27845928
1359 0.27489594
1360 0.27139822
1361 0.26796463
1362 0.26459369
1363 0.26128399
1364 0.25803417
1365 0.25484282
1366 0.2517086
1367 0.24863042
1368 0.24560672
1369 0.24263659
1370 0.23971868
1371 0.23685192
1372 0.23403513
1373 0.23126729
1374 0.22854722
1375 0.22587399
1376 0.22324653
1377 0.22066396
1378 0.21812518
1379 0.2156294
1380 0.21317555
1381 0.21076287
1382 0.20839046
1383 0.20605746
1384 0.20376304
1385 0.20150642
1386 0.19928685
1387 0.19710349
1388 0.19495563
1389 0.19284257
1390 0.19076362
1391 0.18871795
1392 0.18670504
1393 0.18472418
1394 0.18277468
1395 0.18085603
1396 0.17896748
1397 0.17710856
1398 0.17527857
1399 0.17347699
1400 0.17170328
1401 0.16995686
1402 0.16823727
1403 0.16654389
1404 0.16487627
1405 0.16323394
1406 0.16161638
1407 0.16002308
1408 0.15845364
1409 0.15690759
1410 0.15538453
1411 0.15388395
1412 0.15240546
1413 0.15094869
1414 0.14951316
1415 0.14809854
1416 0.14670439
1417 0.14533041
1418 0.14397617
1419 0.14264132
1420 0.14132553
1421 0.14002842
1422 0.1387497
1423 0.13748899
1424 0.13624601
1425 0.13502041
1426 0.13381189
1427 0.13262017
1428 0.13144495
1429 0.13028587
1430 0.12914278
1431 0.12801531
1432 0.12690321
1433 0.12580614
1434 0.12472401
1435 0.1236564
1436 0.12260313
1437 0.12156398
1438 0.12053864
1439 0.11952693
1440 0.11852862
1441 0.11754349
1442 0.11657128
1443 0.11561181
1444 0.11466484
1445 0.11373018
1446 0.11280761
1447 0.11189695
1448 0.11099802
1449 0.1101106
1450 0.10923453
1451 0.10836956
1452 0.10751563
1453 0.10667241
1454 0.10583985
1455 0.10501772
1456 0.10420588
1457 0.10340415
1458 0.10261238
1459 0.10183044
1460 0.10105816
1461 0.10029534
1462 0.099541895
1463 0.098797612
1464 0.098062418
1465 0.097336158
1466 0.096618667
1467 0.095909826
1468 0.095209479
1469 0.094517536
1470 0.093833871
1471 0.09315832
1472 0.0924908
1473 0.091831177
1474 0.091179319
1475 0.090535142
1476 0.089898467
1477 0.089269288
1478 0.088647388
1479 0.088032708
1480 0.087425165
1481 0.086824603
1482 0.086230986
1483 0.085644163
1484 0.085064039
1485 0.084490508
1486 0.083923519
1487 0.083362922
1488 0.082808703
1489 0.082260676
1490 0.081718855
1491 0.081183061
1492 0.080653273
1493 0.080129378
1494 0.079611316
1495 0.079098985
1496 0.078592263
1497 0.078091174
1498 0.077595532
1499 0.077105343
1500 0.076620556
1501 0.076140992
1502 0.075666651
1503 0.075197443
1504 0.074733317
1505 0.074274182
1506 0.073819935
1507 0.073370598
1508 0.072926089
1509 0.072486289
1510 0.072051182
1511 0.071620636
1512 0.071194723
1513 0.070773222
1514 0.070356205
1515 0.069943592
1516 0.069535263
1517 0.069131181
1518 0.068731368
1519 0.068335652
1520 0.067944087
1521 0.06755656
1522 0.067173034
1523 0.066793427
1524 0.066417761
1525 0.06604594
1526 0.065677904
1527 0.0653136
1528 0.064953052
1529 0.064596176
1530 0.064242892
1531 0.063893162
1532 0.063546993
1533 0.063204318
1534 0.062865078
1535 0.062529214
1536 0.062196717
1537 0.061867561
1538 0.061541703
1539 0.061219063
1540 0.060899604
1541 0.060583334
1542 0.060270209
1543 0.059960153
1544 0.05965317
1545 0.059349176
1546 0.059048176
1547 0.05875013
1548 0.058455005
1549 0.05816276
1550 0.057873353
1551 0.057586744
1552 0.057302944
1553 0.057021908
1554 0.056743551
1555 0.056467924
1556 0.056194898
1557 0.055924568
1558 0.055656806
1559 0.055391606
1560 0.055128984
1561 0.054868851
1562 0.054611161
1563 0.054356016
1564 0.054103233
1565 0.053852908
1566 0.053604912
1567 0.053359292
1568 0.053116009
1569 0.052875016
1570 0.052636277
1571 0.052399836
1572 0.052165609
1573 0.051933598
1574 0.051703762
1575 0.051476058
1576 0.051250532
1577 0.051027101
1578 0.050805766
1579 0.050586481
1580 0.0503693
1581 0.050154086
1582 0.049940936
1583 0.049729709
1584 0.049520507
1585 0.049313191
1586 0.049107857
1587 0.048904415
1588 0.048702866
1589 0.048503168
1590 0.048305325
1591 0.048109338
1592 0.047915164
1593 0.047722757
1594 0.047532123
1595 0.047343306
1596 0.047156174
1597 0.046970818
1598 0.04678715
1599 0.046605173
1600 0.046424888
1601 0.046246249
1602 0.046069257
1603 0.045893919
1604 0.045720186
1605 0.045548063
1606 0.045377504
1607 0.04520851
1608 0.045041084
1609 0.044875231
1610 0.044710852
1611 0.044548046
1612 0.044386677
1613 0.044226836
1614 0.044068482
1615 0.043911565
1616 0.04375609
1617 0.043602057
1618 0.04344942
1619 0.043298233
1620 0.043148447
1621 0.043000013
1622 0.042852934
1623 0.042707264
1624 0.042562902
1625 0.042419903
1626 0.042278219
1627 0.042137899
1628 0.041998804
1629 0.041861072
1630 0.041724566
1631 0.041589335
1632 0.041455381
1633 0.041322704
1634 0.041191254
1635 0.041060992
1636 0.040931962
1637 0.040804166
1638 0.040677559
1639 0.040552188
1640 0.04042796
1641 0.040304877
1642 0.040182985
1643 0.040062238
1644 0.039942641
1645 0.039824188
1646 0.039706837
1647 0.039590638
1648 0.039475497
1649 0.039361503
1650 0.039248571
1651 0.039136741
1652 0.039026022
1653 0.038916316
1654 0.038807716
1655 0.03870013
1656 0.038593609
1657 0.038488153
1658 0.038383663
1659 0.038280241
1660 0.038177837
1661 0.038076453
1662 0.037976038
1663 0.037876599
1664 0.03777818
1665 0.037680782
1666 0.037584316
1667 0.037488822
1668 0.037394259
1669 0.037300672
1670 0.037208065
1671 0.037116386
1672 0.037025642
1673 0.036935825
1674 0.036846895
1675 0.036758948
1676 0.036671884
1677 0.036585711
1678 0.036500469
1679 0.036416117
1680 0.036332652
1681 0.036250077
1682 0.036168389
1683 0.036087546
1684 0.036007591
1685 0.03592848
1686 0.035850264
1687 0.035772886
1688 0.035696357
1689 0.035620671
1690 0.03554583
1691 0.035471838
1692 0.03539864
1693 0.035326291
1694 0.035254743
1695 0.035184041
1696 0.035114139
1697 0.035045039
1698 0.034976739
1699 0.034909241
1700 0.034842592
1701 0.034776699
1702 0.034711558
1703 0.034647223
1704 0.034583688
1705 0.034520909
1706 0.034458935
1707 0.034397669
1708 0.034337208
1709 0.034277555
1710 0.034218606
1711 0.034160417
1712 0.034102987
1713 0.034046266
1714 0.033990353
1715 0.033935152
1716 0.033880707
1717 0.033826977
1718 0.033774003
1719 0.033721741
1720 0.033670194
1721 0.033619408
1722 0.033569332
1723 0.033519972
1724 0.033471324
1725 0.03342339
1726 0.033376168
1727 0.033329662
1728 0.033283871
1729 0.033238746
1730 0.033194382
1731 0.033150684
1732 0.033107657
1733 0.033065345
1734 0.033023745
1735 0.032982815
1736 0.032942604
1737 0.032903008
1738 0.032864179
1739 0.032825969
1740 0.032788478
1741 0.032751657
1742 0.032715503
1743 0.032680064
1744 0.032645252
1745 0.032611154
1746 0.032577675
1747 0.032544918
1748 0.032512784
1749 0.032481316
1750 0.032450568
1751 0.032420445
1752 0.032390989
1753 0.032362159
1754 0.032334045
1755 0.032306556
1756 0.032279737
1757 0.032253589
1758 0.032228068
1759 0.032203212
1760 0.032179032
1761 0.032155477
1762 0.032132592
1763 0.03211033
1764 0.032088738
1765 0.03206782
1766 0.03204748
1767 0.032027859
1768 0.032008864
1769 0.031990491
1770 0.031972792
1771 0.031955764
1772 0.031939317
1773 0.031923585
1774 0.031908434
1775 0.031893954
1776 0.031880148
1777 0.031866964
1778 0.03185441
1779 0.031842526
1780 0.031831268
1781 0.031820633
1782 0.031810675
1783 0.031801388
1784 0.031792726
1785 0.031784691
1786 0.031777281
1787 0.031770542
1788 0.031764481
1789 0.031759042
1790 0.031754229
1791 0.03175009
1792 0.031746577
1793 0.031743739
1794 0.031741526
1795 0.031739987
1796 0.031739071
1797 0.031738833
1798 0.031739216
1799 0.031740274
1800 0.031741958
1801 0.031744316
1802 0.031747349
1803 0.031751007
1804 0.031755336
1805 0.031760342
1806 0.031765971
1807 0.031772275
1808 0.031779252
1809 0.031786904
1810 0.031795181
1811 0.031804178
1812 0.0318138
1813 0.031824097
1814 0.031835068
1815 0.03184671
1816 0.031859074
1817 0.031872064
1818 0.031885728
1819 0.031900112
1820 0.031915121
1821 0.031930849
1822 0.031947251
1823 0.031964377
1824 0.031982172
1825 0.032000639
1826 0.032019779
1827 0.032039642
1828 0.032060225
1829 0.032081477
1830 0.032103453
1831 0.032126147
1832 0.032149512
1833 0.032173648
1834 0.032198455
1835 0.032223981
1836 0.032250226
1837 0.032277189
1838 0.032304876
1839 0.032333277
1840 0.032362446
1841 0.032392334
1842 0.032422941
1843 0.032454316
1844 0.032486409
1845 0.032519266
1846 0.032552846
1847 0.032587234
1848 0.032622341
1849 0.032658216
1850 0.032694854
1851 0.032732259
1852 0.032770429
1853 0.032809362
1854 0.032849107
1855 0.032889619
1856 0.032930892
1857 0.03297298
1858 0.033015877
1859 0.033059586
1860 0.033104058
1861 0.033149391
1862 0.033195484
1863 0.033242438
1864 0.033290152
1865 0.033338774
1866 0.033388153
1867 0.033438392
1868 0.033489488
1869 0.033541441
1870 0.033594251
1871 0.033647869
1872 0.033702388
1873 0.033757765
1874 0.033813994
1875 0.033871129
1876 0.033929165
1877 0.033988055
1878 0.034047846
1879 0.034108587
1880 0.034170181
1881 0.034232721
1882 0.034296118
1883 0.034360506
1884 0.034425791
1885 0.034492075
1886 0.034559257
1887 0.034627382
1888 0.034696456
1889 0.034766518
1890 0.034837574
1891 0.034909576
1892 0.034982566
1893 0.035056598
1894 0.03513157
1895 0.035207577
1896 0.035284624
1897 0.035362661
1898 0.035441779
1899 0.035521884
1900 0.035603072
1901 0.035685293
1902 0.035768595
1903 0.035852931
1904 0.035938393
1905 0.036024936
1906 0.036112607
1907 0.03620135
1908 0.036291223
1909 0.036382217
1910 0.036474336
1911 0.036567625
1912 0.036662083
1913 0.036757663
1914 0.036854457
1915 0.036952421
1916 0.037051596
1917 0.037151936
1918 0.03725354
1919 0.037356351
1920 0.037460424
1921 0.037565704
1922 0.037672289
1923 0.037780125
1924 0.03788922
1925 0.03799966
1926 0.038111355
1927 0.038224444
1928 0.03833878
1929 0.03845451
1930 0.038571581
1931 0.038690045
1932 0.038809892
1933 0.038931131
1934 0.039053753
1935 0.039177805
1936 0.039303292
1937 0.039430253
1938 0.03955869
1939 0.039688554
1940 0.039819937
1941 0.039952841
1942 0.040087257
1943 0.040223241
1944 0.040360786
1945 0.04049984
1946 0.040640503
1947 0.040782817
1948 0.040926684
1949 0.041072249
1950 0.041219413
1951 0.041368313
1952 0.04151886
1953 0.04167109
1954 0.041825056
1955 0.041980803
1956 0.042138275
1957 0.042297572
1958 0.042458639
1959 0.042621527
1960 0.042786229
1961 0.042952836
1962 0.043121304
1963 0.043291625
1964 0.043463942
1965 0.043638159
1966 0.043814365
1967 0.043992557
1968 0.04417273
1969 0.044354983
1970 0.044539262
1971 0.044725612
1972 0.044914074
1973 0.045104649
1974 0.045297425
1975 0.045492306
1976 0.045689479
1977 0.045888796
1978 0.046090398
1979 0.046294324
1980 0.046500482
1981 0.046709049
1982 0.046919938
1983 0.04713323
1984 0.047348924
1985 0.047567111
1986 0.047787737
1987 0.048010942
1988 0.048236623
1989 0.048464924
1990 0.048695784
1991 0.0489293
1992 0.04916551
1993 0.049404409
1994 0.049646042
1995 0.049890447
1996 0.050137714
1997 0.05038774
1998 0.050640713
1999 0.050896578
2000 0.051155422
2001 0.051417239
2002 0.051682115
2003 0.051950045
2004 0.052221067
2005 0.052495319
2006 0.052772697
2007 0.053053379
2008 0.053337269
2009 0.053624544
2010 0.05391515
2011 0.054209217
2012 0.054506738
2013 0.054807749
2014 0.05511234
2015 0.055420499
2016 0.055732355
2017 0.056047902
2018 0.056367222
2019 0.056690395
2020 0.057017367
2021 0.05734827
2022 0.057683181
2023 0.058022089
2024 0.058365125
2025 0.058712281
2026 0.059063673
2027 0.0594193
2028 0.059779283
2029 0.060143653
2030 0.06051245
2031 0.060885791
2032 0.061263759
2033 0.061646339
2034 0.062033653
2035 0.062425777
2036 0.062822744
2037 0.063224681
2038 0.063631609
2039 0.064043604
2040 0.064460836
2041 0.064883232
2042 0.065311015
2043 0.065744162
2044 0.066182837
2045 0.066627108
2046 0.067076996
2047 0.067532629
2048 0.067994118
2049 0.068461567
2050 0.068935007
2051 0.069414593
2052 0.069900401
2053 0.070392482
2054 0.070891008
2055 0.071396068
2056 0.071907744
2057 0.07242617
2058 0.072951429
2059 0.073483653
2060 0.074022956
2061 0.074569441
2062 0.075123206
2063 0.075684436
2064 0.076253206
2065 0.076829642
2066 0.077413887
2067 0.078006089
2068 0.078606389
2069 0.079214871
2070 0.079831719
2071 0.080457032
2072 0.081090979
2073 0.081733786
2074 0.082385488
2075 0.083046302
2076 0.083716363
2077 0.084395878
2078 0.08508493
2079 0.085783772
2080 0.086492561
2081 0.08721146
2082 0.087940633
2083 0.088680312
2084 0.089430623
2085 0.090191834
2086 0.090964057
2087 0.091747567
2088 0.092542559
2089 0.093349203
2090 0.094167776
2091 0.094998449
2092 0.095841497
2093 0.096697114
2094 0.097565569
2095 0.09844707
2096 0.099341854
2097 0.10025021
2098 0.10117243
2099 0.10210873
2100 0.10305935
2101 0.10402465
2102 0.10500487
2103 0.10600033
2104 0.10701128
2105 0.10803809
2106 0.10908104
2107 0.11014045
2108 0.11121669
2109 0.11231001
2110 0.11342084
2111 0.11454952
2112 0.11569642
2113 0.11686185
2114 0.11804629
2115 0.11925002
2116 0.12047353
2117 0.12171719
2118 0.12298144
2119 0.12426672
2120 0.12557346
2121 0.12690207
2122 0.12825313
2123 0.12962706
2124 0.13102433
2125 0.13244541
2126 0.13389093
2127 0.13536137
2128 0.13685723
2129 0.13837913
2130 0.1399276
2131 0.14150326
2132 0.14310671
2133 0.14473858
2134 0.14639953
2135 0.14809014
2136 0.14981118
2137 0.15156324
2138 0.15334712
2139 0.15516354
2140 0.15701324
2141 0.15889694
2142 0.16081552
2143 0.16276973
2144 0.16476047
2145 0.16678859
2146 0.16885492
2147 0.17096043
2148 0.17310607
2149 0.17529276
2150 0.17752157
2151 0.17979342
2152 0.18210945
2153 0.18447071
2154 0.18687832
2155 0.18933344
2156 0.19183727
2157 0.19439098
2158 0.19699585
2159 0.19965322
2160 0.20236436
2161 0.20513064
2162 0.20795353
2163 0.21083447
2164 0.21377492
2165 0.21677653
2166 0.21984081
2167 0.22296941
2168 0.22616412
2169 0.22942652
2170 0.23275863
2171 0.23616217
2172 0.2396391
2173 0.24319145
2174 0.24682128
2175 0.25053063
2176 0.25432172
2177 0.25819683
2178 0.2621583
2179 0.26620853
2180 0.27035004
2181 0.27458531
2182 0.2789171
2183 0.28334817
2184 0.28788126
2185 0.29251945
2186 0.29726571
2187 0.30212313
2188 0.30709508
2189 0.31218487
2190 0.31739596
2191 0.32273215
2192 0.32819691
2193 0.33379439
2194 0.33952838
2195 0.34540322
2196 0.35142317
2197 0.35759261
2198 0.36391631
2199 0.37039909
2200 0.37704593
2201 0.38386196
2202 0.39085269
2203 0.39802364
2204 0.40538067
2205 0.41292983
2206 0.42067736
2207 0.42862993
2208 0.43679422
2209 0.44517741
2210 0.45378688
2211 0.46263033
2212 0.47171575
2213 0.48105153
2214 0.49064648
2215 0.50050956
2216 0.51065058
2217 0.52107918
2218 0.53180593
2219 0.54284173
2220 0.55419809
2221 0.56588691
2222 0.57792056
2223 0.59031248
2224 0.60307634
2225 0.61622673
2226 0.62977892
2227 0.64374906
2228 0.65815401
2229 0.67301172
2230 0.68834108
2231 0.70416212
2232 0.72049582
2233 0.73736459
2234 0.75479221
2235 0.77280366
2236 0.79142588
2237 0.8106873
2238 0.8306179
2239 0.85125029
2240 0.87261862
2241 0.89475989
2242 0.91771317
2243 0.94152081
2244 0.96622777
2245 0.9918825
2246 1.0185366
2247 1.0462456
2248 1.0750693
2249 1.1050714
2250 1.1363202
2251 1.1688882
2252 1.2028532
2253 1.2382966
2254 1.2753041
2255 1.3139639
2256 1.3543658
2257 1.396598
2258 1.4407425
2259 1.4868691
2260 1.5350244
2261 1.5852175
2262 1.6373967
2263 1.691417
2264 1.7469931
2265 1.803635
2266 1.8605633
2267 1.9166077
2268 1.970108
2269 2.0188546
2270 2.0601473
2271 2.0910532
2272 2.1089108
2273 2.1119733
2274 2.099925
2275 2.0739815
2276 2.036514
2277 1.9904194
2278 1.9385368
2279 1.883289
2280 1.8265551
2281 1.7696912
2282 1.7136216
2283 1.6589413
2284 1.6060091
2285 1.55502
2286 1.5060586
2287 1.4591374
2288 1.4142227
2289 1.3712528
2290 1.3301494
2291 1.2908267
2292 1.253195
2293 1.2171657
2294 1.1826516
2295 1.1495699
2296 1.1178414
2297 1.0873915
2298 1.0581503
2299 1.0300524
2300 1.0030367
2301 0.97704619
2302 0.9520275
2303 0.92793125
2304 0.90471107
2305 0.88232368
2306 0.86072904
2307 0.83988923
2308 0.8197692
2309 0.80033571
2310 0.78155792
2311 0.76340675
2312 0.74585485
2313 0.72887677
2314 0.71244806
2315 0.69654602
2316 0.68114918
2317 0.66623718
2318 0.6517908
2319 0.63779187
2320 0.62422329
2321 0.61106843
2322 0.59831208
2323 0.58593947
2324 0.57393652
2325 0.56229001
2326 0.55098724
2327 0.54001617
2328 0.52936536
2329 0.51902378
2330 0.50898099
2331 0.49922702
2332 0.48975244
2333 0.48054805
2334 0.47160524
2335 0.46291557
2336 0.45447126
2337 0.44626459
2338 0.43828839
2339 0.43053567
2340 0.42299977
2341 0.41567436
2342 0.4085533
2343 0.40163091
2344 0.39490148
2345 0.38835979
2346 0.38200077
2347 0.37581956
2348 0.36981142
2349 0.36397222
2350 0.35829747
2351 0.35278329
2352 0.34742594
2353 0.34222171
2354 0.33716729
2355 0.33225948
2356 0.32749516
2357 0.32287157
2358 0.31838599
2359 0.31403595
2360 0.30981913
2361 0.30573359
2362 0.30177724
2363 0.29794851
2364 0.29424584
2365 0.29066786
2366 0.28721356
2367 0.28388199
2368 0.28067261
2369 0.27758494
2370 0.27461886
2371 0.27177453
2372 0.26905233
2373 0.26645303
2374 0.26397771
2375 0.26162782
2376 0.2594052
2377 0.25731218
2378 0.25535145
2379 0.25352648
2380 0.25184116
2381 0.25029996
2382 0.24890839
2383 0.24767256
2384 0.24659963
2385 0.2456978
2386 0.24497661
2387 0.2444468
2388 0.24412096
2389 0.24401334
2390 0.24414037
2391 0.24452101
2392 0.24517696
2393 0.24613319
2394 0.24741875
2395 0.24906693
2396 0.25111628
2397 0.25361159
2398 0.25660467
2399 0.26015565
2400 0.26433438
2401 0.26922172
2402 0.27491158
2403 0.28151208
2404 0.2891475
2405 0.29795924
2406 0.30810606
2407 0.3197625
2408 0.33311412
2409 0.3483474
2410 0.36563107
2411 0.38508499
2412 0.40672955
2413 0.43041304
2414 0.45571196
2415 0.48181573
2416 0.50742579
2417 0.53073215
2418 0.54955757
2419 0.5617348
2420 0.56566542
2421 0.56083816
2422 0.5480153
2423 0.52896982
2424 0.50593632
2425 0.48107105
2426 0.45611566
2427 0.43229043
2428 0.41033834
2429 0.3906343
2430 0.37330061
2431 0.35830298
2432 0.34552044
2433 0.33479193
2434 0.32594571
2435 0.31881595
2436 0.31325218
2437 0.30912343
2438 0.3063193
2439 0.30475029
2440 0.30434638
2441 0.30505601
2442 0.30684465
2443 0.3096939
2444 0.31360027
2445 0.31857473
2446 0.32464194
2447 0.33184037
2448 0.3402217
2449 0.34985152
2450 0.36080888
2451 0.37318686
2452 0.38709277
2453 0.40264767
2454 0.41998631
2455 0.43925568
2456 0.46061277
2457 0.48422056
2458 0.51024127
2459 0.53882587
2460 0.57009768
2461 0.60412824
2462 0.64090139
2463 0.68026233
2464 0.72184765
2465 0.76499438
2466 0.80863333
2467 0.85118681
2468 0.89051545
2469 0.92399263
2470 0.94879198
2471 0.96241456
2472 0.96333134
2473 0.95145291
2474 0.92816162
2475 0.89588457
2476 0.85745507
2477 0.81555963
2478 0.77241844
2479 0.72968942
2480 0.68850869
2481 0.64959127
2482 0.61333835
2483 0.57993102
2484 0.54940361
2485 0.52169693
2486 0.49669567
2487 0.47425497
2488 0.45421687
2489 0.43642223
2490 0.42071766
2491 0.40695971
2492 0.39501783
2493 0.38477501
2494 0.37612876
2495 0.36899087
2496 0.36328715
2497 0.35895714
2498 0.35595351
2499 0.35424152
2500 0.35379899
2501 0.35461563
2502 0.35669303
2503 0.36004451
2504 0.36469483
2505 0.37068081
2506 0.3780508
2507 0.38686544
2508 0.39719743
2509 0.40913182
2510 0.42276621
2511 0.43821034
2512 0.45558572
2513 0.47502455
2514 0.49666756
2515 0.52066112
2516 0.54715168
2517 0.57627815
2518 0.60815972
2519 0.64287758
2520 0.68044901
2521 0.72078919
2522 0.76365793
2523 0.80858737
2524 0.8547895
2525 0.90105021
2526 0.94563305
2527 0.9862417
2528 1.0201229
2529 1.0443922
2530 1.0565931
2531 1.0553361
2532 1.0407227
2533 1.0143063
2534 0.97861654
2535 0.93651545
2536 0.8906703
2537 0.84326643
2538 0.79593253
2539 0.7497915
2540 0.70556051
2541 0.66365546
2542 0.62427992
2543 0.58749384
2544 0.55326313
2545 0.52149564
2546 0.49206468
2547 0.46482593
2548 0.4396278
2549 0.41631907
2550 0.39475253
2551 0.37478814
2552 0.35629448
2553 0.33914918
2554 0.32323921
2555 0.30846056
2556 0.29471824
2557 0.28192523
2558 0.27000222
2559 0.25887713
2560 0.24848427
2561 0.23876391
2562 0.22966181
2563 0.22112854
2564 0.21311919
2565 0.20559293
2566 0.19851254
2567 0.19184406
2568 0.18555661
2569 0.17962196
2570 0.17401439
2571 0.16871028
2572 0.16368808
2573 0.15892811
2574 0.1544122
2575 0.15012373
2576 0.14604752
2577 0.14216942
2578 0.13847658
2579 0.13495709
2580 0.13159996
2581 0.12839499
2582 0.12533295
2583 0.12240504
2584 0.11960328
2585 0.1169202
2586 0.11434892
2587 0.11188303
2588 0.10951649
2589 0.1072439
2590 0.10505995
2591 0.10295991
2592 0.10093925
2593 0.098993778
2594 0.097119614
2595 0.095313042
2596 0.093570635
2597 0.091889165
2598 0.090265691
2599 0.088697277
2600 0.087181345
2601 0.085715353
2602 0.084297016
2603 0.082924075
2604 0.081594452
2605 0.080306187
2606 0.07905747
2607 0.07784652
2608 0.076671675
2609 0.075531453
2610 0.074424259
2611 0.07334882
2612 0.072303772
2613 0.071287826
2614 0.070299894
2615 0.069338784
2616 0.068403408
2617 0.067492835
2618 0.066606052
2619 0.065742165
2620 0.064900264
2621 0.064079568
2622 0.063279323
2623 0.062498681
2624 0.061737023
2625 0.060993642
2626 0.060267866
2627 0.059559114
2628 0.058866743
2629 0.0581902
2630 0.057528976
2631 0.056882545
2632 0.056250438
2633 0.055632118
2634 0.05502715
2635 0.054435175
2636 0.053855699
2637 0.053288367
2638 0.052732762
2639 0.052188564
2640 0.051655408
2641 0.051132917
2642 0.050620809
2643 0.050118752
2644 0.049626507
2645 0.049143687
2646 0.048670098
2647 0.048205443
2648 0.047749475
2649 0.047301941
2650 0.046862591
2651 0.046431214
2652 0.046007652
2653 0.045591556
2654 0.04518285
2655 0.044781279
2656 0.044386629
2657 0.043998778
2658 0.043617509
2659 0.0432427
2660 0.04287409
2661 0.042511642
2662 0.042155094
2663 0.04180437
2664 0.041459288
2665 0.041119676
2666 0.040785503
2667 0.040456545
2668 0.040132765
2669 0.039813939
2670 0.039499983
2671 0.039190862
2672 0.03888635
2673 0.038586408
2674 0.038290907
2675 0.037999757
2676 0.037712824
2677 0.037430074
2678 0.037151366
2679 0.036876667
2680 0.036605839
2681 0.036338843
2682 0.036075491
2683 0.035815842
2684 0.035559759
2685 0.035307106
2686 0.035057932
2687 0.034812059
2688 0.034569487
2689 0.03433013
2690 0.034093894
2691 0.033860788
2692 0.033630669
2693 0.033403493
2694 0.033179224
2695 0.032957815
2696 0.032739174
2697 0.032523304
2698 0.032310113
2699 0.032099511
2700 0.031891547
2701 0.031686086
2702 0.031483125
2703 0.031282574
2704 0.031084439
2705 0.030888671
2706 0.030695179
2707 0.030504014
2708 0.030315034
2709 0.030128241
2710 0.029943591
2711 0.029761087
2712 0.029580584
2713 0.029402185
2714 0.029225793
2715 0.029051315
2716 0.028878802
2717 0.028708206
2718 0.028539483
2719 0.028372537
2720 0.028207468
2721 0.028044133
2722 0.02788258
2723 0.027722714
2724 0.027564589
2725 0.027408108
2726 0.027253222
2727 0.027099984
2728 0.026948348
2729 0.026798263
2730 0.026649734
2731 0.026502663
2732 0.026357101
2733 0.026213052
2734 0.026070416
2735 0.025929198
2736 0.025789397
2737 0.025650917
2738 0.025513856
2739 0.025378121
2740 0.025243711
2741 0.025110578
2742 0.024978725
2743 0.024848152
2744 0.02471881
2745 0.024590703
2746 0.024463831
2747 0.024338095
2748 0.024213547
2749 0.024090188
2750 0.02396797
2751 0.023846844
2752 0.023726812
2753 0.023607925
2754 0.023490082
2755 0.023373287
2756 0.023257591
2757 0.023142893
2758 0.023029245
2759 0.0229166
2760 0.022804908
2761 0.022694219
2762 0.022584533
2763 0.022475753
2764 0.02236793
2765 0.022261064
2766 0.022155108
2767 0.02205001
2768 0.021945871
2769 0.021842545
2770 0.021740129
2771 0.021638576
2772 0.021537885
2773 0.02143801
2774 0.021338997
2775 0.021240752
2776 0.021143373
2777 0.02104676
2778 0.020950915
2779 0.020855889
2780 0.02076163
2781 0.020668091
2782 0.020575324
2783 0.020483326
2784 0.020391999
2785 0.020301444
2786 0.020211613
2787 0.020122454
2788 0.020034019
2789 0.019946259
2790 0.019859171
2791 0.019772759
2792 0.019687023
2793 0.019601963
2794 0.01951753
2795 0.019433774
2796 0.019350644
2797 0.019268144
2798 0.019186221
2799 0.019104976
2800 0.019024312
2801 0.018944226
2802 0.018864771
2803 0.018785896
2804 0.018707601
2805 0.01862984
2806 0.018552708
2807 0.018476108
2808 0.01840009
2809 0.018324604
2810 0.018249653
2811 0.018175283
2812 0.018101398
2813 0.018028047
2814 0.017955229
2815 0.017882945
2816 0.017811147
2817 0.017739883
2818 0.017669106
2819 0.017598812
2820 0.017529005
2821 0.017459735
2822 0.017390901
2823 0.017322553
2824 0.017254641
2825 0.017187217
2826 0.017120281
2827 0.017053783
2828 0.016987722
2829 0.0169221
2830 0.016856965
2831 0.016792219
2832 0.016727962
2833 0.016664091
2834 0.016600663
2835 0.016537623
2836 0.016475022
2837 0.016412862
2838 0.016351091
2839 0.016289709
2840 0.016228769
2841 0.01616817
2842 0.01610801
2843 0.016048241
2844 0.015988814
2845 0.015929777
2846 0.015871132
2847 0.015812879
2848 0.015755016
2849 0.015697446
2850 0.015640318
2851 0.015583532
2852 0.015527088
2853 0.015470986
2854 0.015415227
2855 0.015359861
2856 0.015304837
2857 0.015250106
2858 0.015195769
2859 0.015141725
2860 0.015088024
2861 0.015034665
2862 0.014981652
2863 0.01492893
2864 0.014876504
2865 0.014824421
2866 0.014772682
2867 0.014721238
2868 0.014670087
2869 0.014619282
2870 0.014568719
2871 0.014518502
2872 0.01446858
2873 0.014418952
2874 0.014369619
2875 0.014320581
2876 0.014271788
2877 0.014223341
2878 0.014175138
2879 0.014127231
2880 0.014079619
2881 0.014032253
2882 0.013985182
2883 0.013938357
2884 0.013891827
2885 0.013845594
2886 0.013799556
2887 0.013753815
2888 0.013708369
2889 0.013663119
2890 0.013618166
2891 0.013573458
2892 0.013528998
2893 0.013484783
2894 0.013440816
2895 0.013397095
2896 0.01335362
2897 0.013310391
2898 0.01326741
2899 0.013224676
2900 0.013182138
2901 0.013139898
2902 0.013097854
2903 0.013056007
2904 0.013014408
2905 0.012973055
2906 0.01293195
2907 0.012890992
2908 0.012850331
2909 0.012809868
2910 0.012769602
2911 0.012729584
2912 0.012689764
2913 0.01265014
2914 0.012610764
2915 0.012571536
2916 0.012532556
2917 0.012493824
2918 0.012455239
2919 0.012416853
2920 0.012378714
2921 0.012340723
2922 0.01230298
2923 0.012265435
2924 0.012228038
2925 0.01219089
2926 0.012153889
2927 0.012117087
2928 0.012080482
2929 0.012044077
2930 0.012007869
2931 0.01197181
2932 0.011935949
2933 0.011900287
2934 0.011864823
2935 0.011829508
2936 0.01179434
2937 0.011759422
2938 0.011724653
2939 0.011690031
2940 0.011655608
2941 0.011621335
2942 0.011587259
2943 0.011553333
2944 0.011519605
2945 0.011486026
2946 0.011452597
2947 0.011419365
2948 0.011386283
2949 0.011353401
2950 0.011320615
2951 0.01128803
2952 0.011255594
2953 0.011223306
2954 0.011191168
2955 0.011159228
2956 0.011127438
2957 0.011095746
2958 0.011064255
2959 0.011032912
2960 0.011001718
2961 0.010970674
2962 0.010939779
2963 0.010908983
2964 0.010878386
2965 0.010847938
2966 0.01081764
2967 0.010787441
2968 0.010757443
2969 0.010727542
2970 0.010697791
2971 0.01066819
2972 0.010638689
2973 0.010609386
2974 0.010580183
2975 0.01055113
2976 0.010522226
2977 0.010493422
2978 0.010464767
2979 0.010436211
2980 0.010407856
2981 0.010379599
2982 0.010351443
2983 0.010323436
2984 0.010295578
2985 0.010267821
2986 0.010240213
2987 0.010212705
2988 0.010185346
2989 0.010158137
2990 0.010130978
2991 0.010103968
2992 0.010077109
2993 0.010050349
2994 0.010023739
2995 0.0099972282
2996 0.0099708177
2997 0.0099445069
2998 0.0099183451
2999 0.0098923352
3000 0.0098663736
3001 0.009840562
3002 0.0098148501
3003 0.009789289
3004 0.0097637763
3005 0.0097384145
3006 0.0097132036
3007 0.0096880412
3008 0.0096630286
3009 0.0096380664
3010 0.0096132541
3011 0.0095885424
3012 0.0095639806
3013 0.0095394673
3014 0.0095150555
3015 0.0094907926
3016 0.0094666313
3017 0.0094425185
3018 0.0094185565
3019 0.0093946941
3020 0.0093709324
3021 0.0093472702
3022 0.0093237078
3023 0.0093002459
3024 0.0092768837
3025 0.009253622
3026 0.009230461
3027 0.0092073483
3028 0.0091843875
3029 0.0091615263
3030 0.0091387145
3031 0.0091160536
3032 0.0090934429
3033 0.0090709822
3034 0.0090485718
3035 0.009026261
3036 0.0090040509
3037 0.00898189
3038 0.0089598801
3039 0.0089379204
3040 0.0089160604
3041 0.008894301
3042 0.0088726422
3043 0.0088510839
3044 0.0088295741
3045 0.0088081658
3046 0.0087868581
3047 0.0087655997
3048 0.008744441
3049 0.0087233838
3050 0.0087024262
3051 0.008681519
3052 0.0086607123
3053 0.0086400062
3054 0.0086193494
3055 0.0085987933
3056 0.0085783377
3057 0.0085579315
3058 0.0085376268
3059 0.0085173715
3060 0.0084972167
3061 0.0084771626
3062 0.0084571578
3063 0.0084372545
3064 0.0084174005
3065 0.0083976472
3066 0.0083779953
3067 0.0083583929
3068 0.008338891
3069 0.0083194384
3070 0.0083000362
3071 0.0082807355
3072 0.0082615344
3073 0.0082423836
3074 0.0082233343
3075 0.0082043344
3076 0.0081853839
3077 0.0081665348
3078 0.0081477864
3079 0.0081290882
3080 0.0081104394
3081 0.0080918921
3082 0.0080733951
3083 0.0080549475
3084 0.0080366004
3085 0.0080183549
3086 0.0080001596
3087 0.0079820137
3088 0.0079639181
3089 0.0079459231
3090 0.0079279793
3091 0.0079101352
3092 0.0078923423
3093 0.0078745987
3094 0.0078569055
3095 0.0078393128
3096 0.0078218216
3097 0.0078043295
3098 0.0077869385
3099 0.0077695977
3100 0.0077523072
3101 0.0077351173
3102 0.0077179777
3103 0.0077008884
3104 0.0076838494
3105 0.0076669115
3106 0.0076500238
3107 0.0076331859
3108 0.0076164496
3109 0.0075997123
3110 0.0075830761
3111 0.0075664902
3112 0.0075499546
3113 0.0075335205
3114 0.0075170854
3115 0.0075007514
3116 0.0074844677
3117 0.0074682343
3118 0.0074521019
3119 0.0074359695
3120 0.0074199378
3121 0.0074039563
3122 0.0073880255
3123 0.0073721446
3124 0.0073563145
3125 0.0073405346
3126 0.0073248558
3127 0.007309176
3128 0.0072935983
3129 0.0072780703
3130 0.0072625931
3131 0.0072471658
3132 0.0072317892
3133 0.0072164629
3134 0.0072011873
3135 0.0071859616
3136 0.0071708374
3137 0.0071557127
3138 0.0071406895
3139 0.0071256654
3140 0.0071107429
3141 0.0070958198
3142 0.0070809978
3143 0.0070661758
3144 0.0070514549
3145 0.0070367847
3146 0.0070221135
3147 0.0070075439
3148 0.0069930251
3149 0.0069785053
3150 0.006964087
3151 0.0069497195
3152 0.0069354023
3153 0.0069210846
3154 0.0069068684
3155 0.0068926518
3156 0.0068785367
3157 0.0068644206
3158 0.0068504065
3159 0.006836392
3160 0.0068224277
3161 0.006808565
3162 0.0067947018
3163 0.0067808894
3164 0.0067671272
3165 0.0067534153
3166 0.0067397547
3167 0.0067261439
3168 0.0067125843
3169 0.0066990238
3170 0.0066855652
3171 0.0066721058
3172 0.006658697
3173 0.0066453903
3174 0.0066320826
3175 0.0066188257
3176 0.0066055683
3177 0.0065924125
3178 0.0065793074
3179 0.0065662018
3180 0.006553147
3181 0.0065401429
3182 0.0065271892
3183 0.0065142857
3184 0.0065014334
3185 0.0064885807
3186 0.0064758295
3187 0.0064630779
3188 0.0064503769
3189 0.0064377263
3190 0.0064250757
3191 0.0064125266
3192 0.0063999775
3193 0.0063874787
3194 0.0063750306
3195 0.0063626328
3196 0.0063502351
3197 0.0063378881
3198 0.0063255918
3199 0.0063133459
3200 0.0063011507
3201 0.0062889555
3202 0.0062768105
3203 0.0062647164
3204 0.006252673
3205 0.0062406296
3206 0.0062286365
3207 0.0062166941
3208 0.0062048025
3209 0.0061929105
3210 0.0061811204
3211 0.0061693299
3212 0.0061575393
3213 0.0061458503
3214 0.0061341608
3215 0.0061225225
3216 0.0061108833
3217 0.0060993461
3218 0.0060878089
3219 0.0060762712
3220 0.006064835
3221 0.0060533988
3222 0.0060420134
3223 0.0060306275
3224 0.0060193436
3225 0.0060080593
3226 0.0059967749
3227 0.005985592
3228 0.0059744092
3229 0.0059632771
3230 0.0059521445
3231 0.0059410627
3232 0.0059300316
3233 0.0059190006
3234 0.0059080198
3235 0.0058970903
3236 0.0058862115
3237 0.0058753323
3238 0.005864453
3239 0.0058536758
3240 0.005842898
3241 0.0058321711
3242 0.0058214436
3243 0.0058107674
3244 0.005800142
3245 0.005789516
3246 0.0057789409
3247 0.0057683657
3248 0.0057578413
3249 0.0057473676
3250 0.0057369447
3251 0.0057265218
3252 0.0057160985
3253 0.0057057771
3254 0.0056954045
3255 0.0056851339
3256 0.0056748628
3257 0.0056646429
3258 0.0056544226
3259 0.005644253
3260 0.0056341346
3261 0.0056240158
3262 0.0056138965
3263 0.0056038797
3264 0.0055938624
3265 0.0055838446
3266 0.0055738781
3267 0.0055639623
3268 0.005554046
3269 0.005544181
3270 0.0055343155
3271 0.0055245012
3272 0.0055146865
3273 0.0055049229
3274 0.0054952097
3275 0.0054854969
3276 0.0054758345
3277 0.005466172
3278 0.0054565608
3279 0.0054470003
3280 0.0054373881
3281 0.0054278784
3282 0.0054183681
3283 0.0054089092
3284 0.0053994497
3285 0.0053899903
3286 0.0053806328
3287 0.0053712237
3288 0.005361917
3289 0.005352559
3290 0.0053433031
3291 0.0053340467
3292 0.0053247903
3293 0.0053155846
3294 0.0053063789
3295 0.0052972245
3296 0.0052881204
3297 0.0052790167
3298 0.0052699125
3299 0.0052608592
3300 0.0052518058
3301 0.0052428036
3302 0.0052338517
3303 0.0052249003
3304 0.0052159484
3305 0.0052070478
3306 0.0051981979
3307 0.0051893475
3308 0.0051804972
3309 0.0051716981
3310 0.0051629497
3311 0.0051542013
3312 0.0051454529
3313 0.0051367548
3314 0.0051280572
3315 0.0051194103
3316 0.0051107635
3317 0.0051021674
3318 0.0050935713
3319 0.0050850259
3320 0.0050764806
3321 0.0050679864
3322 0.0050594918
3323 0.005051048
3324 0.0050426046
3325 0.0050341608
3326 0.0050257677
3327 0.0050173751
3328 0.0050090328
3329 0.0050007422
3330 0.0049923998
3331 0.0049841083
3332 0.0049758679
3333 0.0049676276
3334 0.0049594385
3335 0.0049512489
3336 0.0049430593
3337 0.0049349205
3338 0.0049267816
3339 0.004918694
3340 0.004910606
3341 0.0049025691
3342 0.0048945323
3343 0.0048864949
3344 0.0048785089
3345 0.0048705223
3346 0.0048625874
3347 0.0048546521
3348 0.0048467675
3349 0.0048388829
3350 0.0048309984
3351 0.004823165
3352 0.0048153312
3353 0.0048075486
3354 0.004799766
3355 0.0047919829
3356 0.0047842511
3357 0.0047765193
3358 0.0047688382
3359 0.0047611571
3360 0.004753476
3361 0.0047458457
3362 0.0047382158
3363 0.0047306363
3364 0.0047230572
3365 0.0047154776
3366 0.0047079492
3367 0.0047004209
3368 0.0046929433
3369 0.0046854657
3370 0.0046779881
3371 0.0046705618
3372 0.0046631349
3373 0.0046557593
3374 0.0046483837
3375 0.0046410076
3376 0.0046336832
3377 0.0046263584
3378 0.0046190331
3379 0.0046117594
3380 0.0046044854
3381 0.0045972113
3382 0.0045899879
3383 0.0045828163
3384 0.0045755929
3385 0.0045684208
3386 0.0045612482
3387 0.0045541273
3388 0.004547006
3389 0.0045399358
3390 0.004532814
3391 0.0045257951
3392 0.0045187245
3393 0.0045117051
3394 0.0045046858
3395 0.0044977171
3396 0.004490749
3397 0.0044837804
3398 0.0044768113
3399 0.0044698939
3400 0.0044630272
3401 0.0044561094
3402 0.0044492427
3403 0.0044424273
3404 0.0044355607
3405 0.0044287448
3406 0.0044219801
3407 0.0044151642
3408 0.0044083991
3409 0.0044016857
3410 0.0043949205
3411 0.0043882066
3412 0.004381544
3413 0.0043748301
3414 0.0043681669
3415 0.0043615038
3416 0.0043548918
3417 0.0043482799
3418 0.004341668
3419 0.0043351068
3420 0.0043285461
3421 0.0043219849
3422 0.004315475
3423 0.0043089646
3424 0.0043024546
3425 0.0042959442
3426 0.004289485
3427 0.0042830259
3428 0.0042766179
3429 0.0042702099
3430 0.0042638015
3431 0.0042573935
3432 0.0042510363
3433 0.0042446791
3434 0.0042383214
3435 0.0042320155
3436 0.004225709
3437 0.004219403
3438 0.0042130966
3439 0.0042068413
3440 0.0042005857
3441 0.0041943816
3442 0.0041881264
3443 0.0041819219
3444 0.0041757687
3445 0.0041695642
3446 0.004163411
3447 0.0041572577
3448 0.0041511552
3449 0.0041450532
3450 0.0041389507
3451 0.0041328482
3452 0.004126797
3453 0.0041207457
3454 0.004114694
3455 0.0041086427
3456 0.0041026422
3457 0.0040966417
3458 0.0040906928
3459 0.0040846919
3460 0.0040787426
3461 0.0040727933
3462 0.0040668952
3463 0.0040609967
3464 0.0040550982
3465 0.0040491996
3466 0.0040433011
3467 0.0040374538
3468 0.0040316065
3469 0.0040258104
3470 0.0040199626
3471 0.0040141665
3472 0.00400837
3473 0.0040026247
3474 0.0039968793
3475 0.003991134
3476 0.0039853887
3477 0.0039796429
3478 0.0039739488
3479 0.0039682542
3480 0.0039625601
3481 0.0039569167
3482 0.0039512734
3483 0.00394563
3484 0.0039399867
3485 0.0039343941
3486 0.003928802
3487 0.0039232098
3488 0.0039176173
3489 0.0039120759
3490 0.003906535
3491 0.0039009934
3492 0.003895452
3493 0.0038899619
3494 0.0038844717
3495 0.0038789813
3496 0.003873491
3497 0.0038680518
3498 0.0038626126
3499 0.0038571733
3500 0.0038517341
##END=
