##TITLE=QM9S 000010 RAMAN
##JCAMP-DX=5.00
##DATA TYPE=RAMAN SPECTRUM
##ORIGIN=LLM_DMT QM9SMotifDataset test split
##$QM9_IDX=10
##$SPLIT_POSITION=0
##XUNITS=INDEX
##YUNITS=ARBITRARY UNITS
##FIRSTX=0
##LASTX=3500
##NPOINTS=3501
##XYDATA=(XY..XY)
0 0.26532173
1 0.22819908
2 0.19594738
3 0.16860023
4 0.14569151
5 0.12659085
6 0.11066743
7 0.097358085
8 0.086186707
9 0.076761529
10 0.068765394
11 0.061942533
12 0.05608749
13 0.051034927
14 0.046651397
15 0.042828683
16 0.039478712
17 0.036529407
18 0.033921506
19 0.031605896
20 0.029541796
21 0.027695224
22 0.026037456
23 0.024544371
24 0.02319546
25 0.021973334
26 0.020863043
27 0.019851752
28 0.018928368
29 0.018083422
30 0.017308474
31 0.016596377
32 0.015940707
33 0.015335923
34 0.014777136
35 0.014260015
36 0.013780698
37 0.013335847
38 0.012922351
39 0.012537586
40 0.01217911
41 0.011844723
42 0.011532461
43 0.011240661
44 0.010967696
45 0.010712137
46 0.010472702
47 0.010248202
48 0.01003755
49 0.009839803
50 0.0096541177
51 0.0094795981
52 0.0093155494
53 0.0091613233
54 0.0090162205
55 0.0088797435
56 0.0087513924
57 0.0086305663
58 0.0085169142
59 0.0084100375
60 0.0083094835
61 0.0082149515
62 0.0081261415
63 0.0080426997
64 0.0079643754
65 0.0078908671
66 0.0078220246
67 0.007757545
68 0.0076972772
69 0.007640969
70 0.0075885197
71 0.007539677
72 0.0074943397
73 0.0074523566
74 0.0074135759
75 0.0073778965
76 0.0073451665
77 0.0073153363
78 0.0072882017
79 0.0072637638
80 0.0072419215
81 0.0072225733
82 0.0072056171
83 0.0071910028
84 0.0071786796
85 0.0071685459
86 0.0071606017
87 0.007154745
88 0.0071509257
89 0.0071491431
90 0.0071492959
91 0.0071513839
92 0.0071554072
93 0.0071612126
94 0.0071689025
95 0.0071783741
96 0.0071896282
97 0.0072026639
98 0.0072174305
99 0.0072338767
100 0.0072520538
101 0.0072719101
102 0.0072934963
103 0.0073167104
104 0.0073416033
105 0.0073681744
106 0.0073964237
107 0.0074262996
108 0.0074579036
109 0.0074911341
110 0.0075260405
111 0.0075626238
112 0.0076009333
113 0.0076409183
114 0.0076826289
115 0.0077260644
116 0.0077712759
117 0.0078182118
118 0.0078669721
119 0.0079175578
120 0.0079699671
121 0.0080242502
122 0.008080408
123 0.008138488
124 0.0081985425
125 0.0082605695
126 0.0083246194
127 0.0083907917
128 0.0084590372
129 0.0085294032
130 0.0086020418
131 0.0086769015
132 0.0087540308
133 0.0088335825
134 0.0089155026
135 0.0089999428
136 0.0090869023
137 0.0091764797
138 0.0092687253
139 0.009363737
140 0.0094615649
141 0.0095623592
142 0.0096661178
143 0.0097729899
144 0.0098830229
145 0.0099963685
146 0.010113123
147 0.010233336
148 0.010357206
149 0.01048478
150 0.010616258
151 0.010751735
152 0.010891312
153 0.011035234
154 0.011183599
155 0.011336554
156 0.011494296
157 0.01165702
158 0.011824872
159 0.011998099
160 0.012176896
161 0.012361505
162 0.012552122
163 0.01274904
164 0.012952453
165 0.013162751
166 0.013380127
167 0.013604919
168 0.01383747
169 0.014078115
170 0.014327194
171 0.01458519
172 0.01485244
173 0.015129374
174 0.015416477
175 0.015714275
176 0.016023245
177 0.016344011
178 0.016677096
179 0.017023169
180 0.017382892
181 0.01775703
182 0.018146336
183 0.018551616
184 0.018973764
185 0.019413723
186 0.019872524
187 0.020351246
188 0.020851051
189 0.021373203
190 0.021919094
191 0.022490108
192 0.023087865
193 0.023714067
194 0.024370499
195 0.025059219
196 0.025782272
197 0.026542114
198 0.027341221
199 0.028182335
200 0.029068505
201 0.030002927
202 0.030989289
203 0.032031372
204 0.033133563
205 0.034300469
206 0.035537388
207 0.036849845
208 0.038244214
209 0.039727345
210 0.04130698
211 0.042991526
212 0.044790432
213 0.046714213
214 0.048774548
215 0.05098452
216 0.053358745
217 0.055913735
218 0.058667865
219 0.061642025
220 0.064859785
221 0.068347856
222 0.072136559
223 0.07626041
224 0.080758907
225 0.085677192
226 0.091067083
227 0.096988246
228 0.10350961
229 0.1107108
230 0.11868428
231 0.1275375
232 0.13739584
233 0.1484053
234 0.16073701
235 0.174591
236 0.19020127
237 0.20784138
238 0.22783026
239 0.25053778
240 0.27638873
241 0.30586493
242 0.33949938
243 0.37785894
244 0.42150372
245 0.47090495
246 0.52629071
247 0.58737332
248 0.65289497
249 0.71995926
250 0.78326839
251 0.83483946
252 0.8653515
253 0.86783206
254 0.84166771
255 0.79300529
256 0.73108941
257 0.66428626
258 0.59835052
259 0.53652906
260 0.48030022
261 0.4300749
262 0.38568625
263 0.34668848
264 0.31252712
265 0.28263098
266 0.25645795
267 0.23351574
268 0.21336877
269 0.1956374
270 0.17999384
271 0.16615698
272 0.15388612
273 0.14297576
274 0.13325039
275 0.12455996
276 0.11677624
277 0.10978914
278 0.10350427
279 0.097840369
280 0.092727348
281 0.088104613
282 0.083919719
283 0.080127053
284 0.07668703
285 0.073565044
286 0.070730999
287 0.06815841
288 0.065824211
289 0.063708156
290 0.061792441
291 0.06006147
292 0.058501616
293 0.057100855
294 0.055848688
295 0.054736055
296 0.053755075
297 0.05289885
298 0.052161571
299 0.051538363
300 0.051025167
301 0.050618738
302 0.050316509
303 0.05011677
304 0.050018411
305 0.050020996
306 0.050124798
307 0.050330851
308 0.050640762
309 0.051056929
310 0.051582545
311 0.052221525
312 0.052978735
313 0.053859953
314 0.054871906
315 0.056022603
316 0.057321228
317 0.05877826
318 0.060405921
319 0.062218118
320 0.064230792
321 0.066462226
322 0.06893333
323 0.071668044
324 0.074693821
325 0.078042254
326 0.081749655
327 0.085857831
328 0.090415217
329 0.095477834
330 0.10111062
331 0.10738935
332 0.11440219
333 0.12225239
334 0.13106085
335 0.1409695
336 0.15214536
337 0.16478498
338 0.17911983
339 0.19542217
340 0.21401145
341 0.2352607
342 0.25960153
343 0.28752637
344 0.31958359
345 0.3563599
346 0.39843625
347 0.44630048
348 0.50018007
349 0.55974627
350 0.62362701
351 0.68870395
352 0.74936247
353 0.79735678
354 0.8234911
355 0.82155859
356 0.79204124
357 0.74179274
358 0.68006462
359 0.61479664
360 0.5512408
361 0.49223965
362 0.43899253
363 0.39173332
364 0.3501887
365 0.31385323
366 0.28214344
367 0.25447783
368 0.23031625
369 0.20917559
370 0.19063319
371 0.17432429
372 0.15993647
373 0.14720362
374 0.13589938
375 0.1258314
376 0.11683609
377 0.10877442
378 0.10152754
379 0.094994083
380 0.089087106
381 0.083731949
382 0.078864306
383 0.074428573
384 0.070376635
385 0.06666667
386 0.063262187
387 0.060131393
388 0.057246316
389 0.054582488
390 0.052118316
391 0.049834643
392 0.047714639
393 0.045743346
394 0.043907307
395 0.042194702
396 0.040594861
397 0.039098326
398 0.037696447
399 0.036381599
400 0.035146799
401 0.033985853
402 0.032893073
403 0.031863309
404 0.030891903
405 0.029974613
406 0.029107627
407 0.028287368
408 0.027510604
409 0.026774509
410 0.026076267
411 0.025413426
412 0.024783755
413 0.024185097
414 0.023615573
415 0.023073433
416 0.02255691
417 0.022064624
418 0.021595079
419 0.021147022
420 0.020719182
421 0.020310536
422 0.019919951
423 0.019546485
424 0.019189242
425 0.018847372
426 0.018520115
427 0.01820671
428 0.017906444
429 0.017618747
430 0.017342949
431 0.017078523
432 0.016824892
433 0.016581677
434 0.016348299
435 0.016124373
436 0.015909465
437 0.015703239
438 0.015505307
439 0.015315283
440 0.015132925
441 0.014957893
442 0.014789896
443 0.014628642
444 0.014473937
445 0.014325541
446 0.014183155
447 0.014046638
448 0.013915795
449 0.013790378
450 0.013670243
451 0.013555244
452 0.013445233
453 0.013339964
454 0.01323939
455 0.013143363
456 0.013051737
457 0.012964413
458 0.012881292
459 0.012802227
460 0.012727171
461 0.012655973
462 0.012588586
463 0.012524961
464 0.012464999
465 0.012408601
466 0.012355718
467 0.012306301
468 0.012260351
469 0.012217719
470 0.012178405
471 0.012142411
472 0.012109635
473 0.01208008
474 0.012053695
475 0.01203048
476 0.012010387
477 0.011993466
478 0.011979667
479 0.01196894
480 0.011961334
481 0.011956851
482 0.011955491
483 0.011957254
484 0.01196214
485 0.011970198
486 0.011981379
487 0.011995833
488 0.01201346
489 0.012034408
490 0.01205863
491 0.012086223
492 0.012117238
493 0.012151673
494 0.012189631
495 0.012231209
496 0.012276407
497 0.012325374
498 0.01237816
499 0.012434813
500 0.012495484
501 0.01256032
502 0.012629321
503 0.012702685
504 0.012780561
505 0.012862997
506 0.012950242
507 0.013042392
508 0.013139647
509 0.013242152
510 0.013350155
511 0.013463804
512 0.013583394
513 0.013709071
514 0.013841181
515 0.013979918
516 0.014125577
517 0.014278552
518 0.014439085
519 0.014607567
520 0.014784342
521 0.014969897
522 0.015164573
523 0.015368856
524 0.015583282
525 0.015808387
526 0.016044749
527 0.016292952
528 0.01655372
529 0.016827781
530 0.017115852
531 0.017418804
532 0.017737547
533 0.018073091
534 0.018426539
535 0.018798936
536 0.019191621
537 0.019605972
538 0.020043461
539 0.020505697
540 0.020994475
541 0.021511724
542 0.022059605
543 0.022640461
544 0.023256756
545 0.02391143
546 0.024607532
547 0.025348479
548 0.026138132
549 0.026980702
550 0.027880831
551 0.028843729
552 0.029875258
553 0.030981867
554 0.032170955
555 0.033450618
556 0.034830168
557 0.036319986
558 0.037931919
559 0.039679386
560 0.041577764
561 0.04364448
562 0.045899604
563 0.048366282
564 0.051071152
565 0.054045133
566 0.057324179
567 0.060950272
568 0.064972669
569 0.069449231
570 0.074448548
571 0.080051795
572 0.08635585
573 0.093476459
574 0.1015527
575 0.11075193
576 0.12127618
577 0.13336967
578 0.14732721
579 0.16350369
580 0.18232302
581 0.20428376
582 0.2299563
583 0.25996092
584 0.29490536
585 0.33524761
586 0.38102609
587 0.43138942
588 0.48389766
589 0.53379714
590 0.57399917
591 0.59697795
592 0.59874624
593 0.58200938
594 0.55501062
595 0.52709854
596 0.50481546
597 0.49004415
598 0.47976413
599 0.46755588
600 0.44726714
601 0.4169004
602 0.37919301
603 0.33885911
604 0.29983374
605 0.26433679
606 0.23317389
607 0.2063224
608 0.18337999
609 0.16382267
610 0.1471301
611 0.13283595
612 0.12054238
613 0.10991787
614 0.10068952
615 0.09263362
616 0.085566752
617 0.079338491
618 0.073824786
619 0.068923078
620 0.06454803
621 0.060628496
622 0.057104666
623 0.053926077
624 0.051049933
625 0.048439965
626 0.046064973
627 0.04389818
628 0.041916594
629 0.040100195
630 0.038431622
631 0.036895785
632 0.035479326
633 0.034170706
634 0.032959592
635 0.03183699
636 0.030794781
637 0.029825957
638 0.028924044
639 0.028083347
640 0.027298925
641 0.026566075
642 0.025880765
643 0.025239266
644 0.024638252
645 0.024074711
646 0.023545844
647 0.023049278
648 0.022582617
649 0.02214394
650 0.021731215
651 0.021342842
652 0.02097716
653 0.020632794
654 0.020308362
655 0.020002723
656 0.019714631
657 0.01944318
658 0.019187311
659 0.018946258
660 0.018719107
661 0.018505132
662 0.01830361
663 0.018114012
664 0.017935557
665 0.017767863
666 0.017610297
667 0.017462419
668 0.017323796
669 0.017193936
670 0.017072549
671 0.016959243
672 0.016853627
673 0.016755408
674 0.016664341
675 0.016580082
676 0.016502436
677 0.016431106
678 0.016365949
679 0.016306665
680 0.016253058
681 0.01620503
682 0.016162384
683 0.016124921
684 0.016092494
685 0.016065005
686 0.016042303
687 0.016024241
688 0.016010771
689 0.016001787
690 0.015997097
691 0.015996749
692 0.016000541
693 0.016008474
694 0.0160204
695 0.016036367
696 0.016056275
697 0.016080022
698 0.016107611
699 0.016138989
700 0.016174154
701 0.016213009
702 0.01625555
703 0.016301828
704 0.016351689
705 0.016405234
706 0.016462462
707 0.01652327
708 0.016587706
709 0.016655771
710 0.016727513
711 0.016802877
712 0.016881913
713 0.01696462
714 0.017051045
715 0.017141234
716 0.017235188
717 0.0173329
718 0.01743447
719 0.017539944
720 0.017649321
721 0.017762695
722 0.017880114
723 0.018001573
724 0.01812722
725 0.018257098
726 0.018391307
727 0.018529838
728 0.018672839
729 0.018820403
730 0.018972576
731 0.0191295
732 0.019291271
733 0.019457981
734 0.019629775
735 0.019806743
736 0.019989029
737 0.020176772
738 0.020370116
739 0.020569202
740 0.020774165
741 0.020985249
742 0.021202542
743 0.021426281
744 0.021656701
745 0.021893891
746 0.022138134
747 0.022389714
748 0.022648765
749 0.022915568
750 0.023190454
751 0.023473652
752 0.023765488
753 0.024066187
754 0.024376225
755 0.024695823
756 0.025025401
757 0.025365375
758 0.025716159
759 0.02607812
760 0.026451761
761 0.026837589
762 0.027236156
763 0.027647911
764 0.028073544
765 0.028513644
766 0.028968893
767 0.029439971
768 0.029927645
769 0.030432727
770 0.030956123
771 0.03149863
772 0.032061379
773 0.032645345
774 0.033251692
775 0.033881664
776 0.034536496
777 0.03521765
778 0.035926621
779 0.036665082
780 0.037434775
781 0.038237669
782 0.039075755
783 0.039951377
784 0.040866986
785 0.041825198
786 0.042828918
787 0.043881427
788 0.044986103
789 0.046146777
790 0.047367726
791 0.048653435
792 0.05000909
793 0.05144028
794 0.05295321
795 0.05455482
796 0.056252755
797 0.058055609
798 0.059972916
799 0.062015429
800 0.064195201
801 0.066525757
802 0.069022506
803 0.071702726
804 0.074586183
805 0.077695414
806 0.081056103
807 0.084697843
808 0.088654481
809 0.092965394
810 0.097676016
811 0.10283928
812 0.1085171
813 0.11478183
814 0.12171867
815 0.12942813
816 0.13802929
817 0.14766356
818 0.15849918
819 0.170737
820 0.18461664
821 0.200424
822 0.21849939
823 0.23924509
824 0.26313111
825 0.29069647
826 0.32253769
827 0.35927457
828 0.40147063
829 0.44947407
830 0.50312382
831 0.56125575
832 0.62098199
833 0.67692626
834 0.72110695
835 0.74468344
836 0.74191779
837 0.7137149
838 0.66705912
839 0.61098051
840 0.55298823
841 0.49785832
842 0.44800574
843 0.40428597
844 0.36667678
845 0.33472869
846 0.30782637
847 0.28532845
848 0.26663479
849 0.25121447
850 0.23861325
851 0.22845058
852 0.22041278
853 0.21424457
854 0.20974158
855 0.20674261
856 0.20512424
857 0.2047959
858 0.20569633
859 0.20779079
860 0.2110697
861 0.2155479
862 0.22126465
863 0.22828472
864 0.23670053
865 0.24663457
866 0.25824383
867 0.27172396
868 0.28731561
869 0.30531055
870 0.3260588
871 0.34997335
872 0.37753221
873 0.40927085
874 0.44575626
875 0.48752442
876 0.5349524
877 0.58801609
878 0.64586878
879 0.70619392
880 0.76442707
881 0.81336331
882 0.84427273
883 0.85035384
884 0.83078957
885 0.791471
886 0.74152941
887 0.68928027
888 0.64036381
889 0.59782416
890 0.56289345
891 0.53575271
892 0.51606107
893 0.50327528
894 0.49682468
895 0.49619904
896 0.5009864
897 0.51088709
898 0.52571213
899 0.54537839
900 0.56989956
901 0.59937656
902 0.63398504
903 0.67395771
904 0.71955639
905 0.77102149
906 0.82848382
907 0.89180452
908 0.96029943
909 1.0322881
910 1.1044568
911 1.1712263
912 1.2248241
913 1.2572583
914 1.2644689
915 1.2498714
916 1.2234483
917 1.1968324
918 1.1781893
919 1.1691251
920 1.1641146
921 1.153115
922 1.1271185
923 1.0832126
924 1.0249764
925 0.95886928
926 0.89074224
927 0.82449096
928 0.7622059
929 0.70475888
930 0.65232074
931 0.60470253
932 0.56155294
933 0.52246475
934 0.48702964
935 0.45486248
936 0.42561203
937 0.39896372
938 0.37463829
939 0.35238916
940 0.33199865
941 0.31327546
942 0.29605046
943 0.2801747
944 0.26551637
945 0.25195867
946 0.23939821
947 0.22774272
948 0.21691021
949 0.20682746
950 0.19742893
951 0.18865588
952 0.18045558
953 0.17278059
954 0.16558821
955 0.15883973
956 0.15250029
957 0.14653832
958 0.14092508
959 0.13563442
960 0.13064273
961 0.12592822
962 0.1214713
963 0.11725381
964 0.11325925
965 0.10947248
966 0.10587957
967 0.10246778
968 0.099225283
969 0.096141241
970 0.093205735
971 0.090409495
972 0.087743975
973 0.085201278
974 0.082774132
975 0.080455698
976 0.078239717
977 0.076120272
978 0.074092016
979 0.072149761
980 0.070288926
981 0.068504989
982 0.066793874
983 0.065151699
984 0.063574947
985 0.062060177
986 0.060604315
987 0.059204325
988 0.05785745
989 0.056561109
990 0.05531285
991 0.054110408
992 0.052951559
993 0.05183427
994 0.050756667
995 0.04971692
996 0.048713278
997 0.047744185
998 0.046808116
999 0.04590356
1000 0.045029279
1001 0.044183861
1002 0.043366175
1003 0.042575013
1004 0.041809257
1005 0.041067962
1006 0.040350076
1007 0.039654672
1008 0.038980875
1009 0.038327783
1010 0.037694693
1011 0.037080783
1012 0.036485285
1013 0.035907604
1014 0.035347007
1015 0.034802884
1016 0.034274634
1017 0.033761691
1018 0.03326349
1019 0.032779597
1020 0.032309391
1021 0.031852484
1022 0.031408388
1023 0.030976659
1024 0.030556953
1025 0.030148769
1026 0.029751755
1027 0.029365655
1028 0.02898996
1029 0.028624458
1030 0.028268788
1031 0.027922634
1032 0.027585724
1033 0.027257793
1034 0.026938519
1035 0.026627677
1036 0.026324991
1037 0.026030289
1038 0.025743289
1039 0.025463765
1040 0.025191538
1041 0.024926374
1042 0.02466809
1043 0.024416555
1044 0.024171485
1045 0.023932792
1046 0.023700291
1047 0.023473799
1048 0.023253223
1049 0.02303833
1050 0.022829026
1051 0.022625176
1052 0.02242659
1053 0.022233274
1054 0.02204499
1055 0.021861646
1056 0.021683149
1057 0.021509407
1058 0.021340279
1059 0.02117572
1060 0.021015586
1061 0.020859737
1062 0.020708224
1063 0.020560855
1064 0.020417538
1065 0.020278273
1066 0.020142967
1067 0.020011475
1068 0.019883851
1069 0.019759897
1070 0.019639622
1071 0.019522974
1072 0.019409912
1073 0.019300284
1074 0.019194147
1075 0.019091401
1076 0.018992003
1077 0.018895902
1078 0.018803051
1079 0.018713454
1080 0.018627012
1081 0.01854373
1082 0.018463556
1083 0.018386444
1084 0.018312395
1085 0.018241363
1086 0.018173348
1087 0.018108301
1088 0.018046174
1089 0.01798702
1090 0.017930739
1091 0.017877381
1092 0.017826948
1093 0.017779343
1094 0.017734615
1095 0.017692715
1096 0.017653694
1097 0.017617505
1098 0.017584145
1099 0.017553618
1100 0.017525973
1101 0.017501159
1102 0.017479179
1103 0.017460084
1104 0.017443869
1105 0.017430492
1106 0.017420046
1107 0.017412536
1108 0.017407911
1109 0.01740622
1110 0.017407563
1111 0.017411841
1112 0.0174192
1113 0.017429596
1114 0.017443074
1115 0.017459685
1116 0.017479427
1117 0.017502403
1118 0.017528608
1119 0.017558143
1120 0.017591007
1121 0.017627249
1122 0.017666917
1123 0.017710112
1124 0.01775693
1125 0.01780732
1126 0.017861482
1127 0.017919362
1128 0.017981159
1129 0.018046869
1130 0.018116593
1131 0.018190477
1132 0.018268567
1133 0.018351009
1134 0.018437853
1135 0.018529244
1136 0.018625276
1137 0.018726099
1138 0.018831855
1139 0.018942641
1140 0.01905865
1141 0.01918003
1142 0.01930687
1143 0.019439418
1144 0.019577812
1145 0.0197223
1146 0.019872969
1147 0.020030113
1148 0.020193921
1149 0.020364633
1150 0.020542488
1151 0.020727722
1152 0.020920575
1153 0.021121427
1154 0.02133047
1155 0.021548133
1156 0.021774597
1157 0.022010345
1158 0.022255704
1159 0.02251105
1160 0.022776758
1161 0.023053352
1162 0.023341252
1163 0.023640873
1164 0.023952879
1165 0.024277685
1166 0.024615945
1167 0.024968265
1168 0.025335291
1169 0.025717674
1170 0.026116196
1171 0.026531642
1172 0.026964841
1173 0.02741671
1174 0.027888114
1175 0.028380103
1176 0.028893771
1177 0.029430246
1178 0.029990751
1179 0.030576639
1180 0.031189252
1181 0.031830113
1182 0.032500871
1183 0.033203207
1184 0.03393903
1185 0.034710314
1186 0.035519164
1187 0.036367983
1188 0.03725924
1189 0.038195569
1190 0.039179936
1191 0.0402155
1192 0.041305616
1193 0.042454086
1194 0.043664798
1195 0.044942178
1196 0.04629102
1197 0.047716402
1198 0.049224034
1199 0.050820041
1200 0.052511144
1201 0.054304805
1202 0.056209046
1203 0.058232807
1204 0.060385872
1205 0.062679052
1206 0.065124251
1207 0.067734666
1208 0.070524849
1209 0.073511019
1210 0.076711118
1211 0.080145262
1212 0.08383581
1213 0.087807678
1214 0.092088856
1215 0.096710794
1216 0.10170871
1217 0.10712235
1218 0.11299659
1219 0.11938211
1220 0.1263364
1221 0.13392468
1222 0.14222111
1223 0.15131024
1224 0.16128853
1225 0.17226623
1226 0.18436958
1227 0.19774312
1228 0.21255271
1229 0.22898856
1230 0.24726862
1231 0.26764262
1232 0.29039559
1233 0.31585202
1234 0.34437841
1235 0.37638491
1236 0.41232273
1237 0.45267549
1238 0.49793881
1239 0.54857755
1240 0.60494673
1241 0.66714567
1242 0.73476422
1243 0.80646086
1244 0.87932914
1245 0.94814801
1246 1.00501
1247 1.0404278
1248 1.0467958
1249 1.0225885
1250 0.97334075
1251 0.90830749
1252 0.83630365
1253 0.7636559
1254 0.69412899
1255 0.62961543
1256 0.5708434
1257 0.51788276
1258 0.47046053
1259 0.42814431
1260 0.39044443
1261 0.35686898
1262 0.32695228
1263 0.30026668
1264 0.27642825
1265 0.25509569
1266 0.23596835
1267 0.21878269
1268 0.20330828
1269 0.18934409
1270 0.17671481
1271 0.16526763
1272 0.15486909
1273 0.14540276
1274 0.13676687
1275 0.12887216
1276 0.12164047
1277 0.11500305
1278 0.10889945
1279 0.1032763
1280 0.098086499
1281 0.093288191
1282 0.088844478
1283 0.084722377
1284 0.080892615
1285 0.077328973
1286 0.074008115
1287 0.070909031
1288 0.068012975
1289 0.065303043
1290 0.062763967
1291 0.060381997
1292 0.058144737
1293 0.056040984
1294 0.054060493
1295 0.052194029
1296 0.050433148
1297 0.048770197
1298 0.047198206
1299 0.045710683
1300 0.04430183
1301 0.042966295
1302 0.041699171
1303 0.04049588
1304 0.039352283
1305 0.03826455
1306 0.03722921
1307 0.036242932
1308 0.035302714
1309 0.034405801
1310 0.03354954
1311 0.032731634
1312 0.0319498
1313 0.031201974
1314 0.030486254
1315 0.029800823
1316 0.029144082
1317 0.02851437
1318 0.02791035
1319 0.027330576
1320 0.026773779
1321 0.026238883
1322 0.025724651
1323 0.02523013
1324 0.024754267
1325 0.024296191
1326 0.023855029
1327 0.023429947
1328 0.023020262
1329 0.022625176
1330 0.022243997
1331 0.021876169
1332 0.021521036
1333 0.021177988
1334 0.020846611
1335 0.02052629
1336 0.020216554
1337 0.019916983
1338 0.019627152
1339 0.019346634
1340 0.019075051
1341 0.018812025
1342 0.018557223
1343 0.01831031
1344 0.018070957
1345 0.017838875
1346 0.017613776
1347 0.017395377
1348 0.017183436
1349 0.016977765
1350 0.016778022
1351 0.016584069
1352 0.016395612
1353 0.01621256
1354 0.01603462
1355 0.015861649
1356 0.015693503
1357 0.015529935
1358 0.015370855
1359 0.015216066
1360 0.015065471
1361 0.014918876
1362 0.014776185
1363 0.014637202
1364 0.014501879
1365 0.01437007
1366 0.014241628
1367 0.014116506
1368 0.013994556
1369 0.013875731
1370 0.013759833
1371 0.013646864
1372 0.013536676
1373 0.013429221
1374 0.013324399
1375 0.013222164
1376 0.013122368
1377 0.013025009
1378 0.01292999
1379 0.012837213
1380 0.012746627
1381 0.012658236
1382 0.012571888
1383 0.012487587
1384 0.01240523
1385 0.01232477
1386 0.012246208
1387 0.012169445
1388 0.01209443
1389 0.012021114
1390 0.011949448
1391 0.011879432
1392 0.011811017
1393 0.011744103
1394 0.011678742
1395 0.011614782
1396 0.011552274
1397 0.011491169
1398 0.011431367
1399 0.011372918
1400 0.011315773
1401 0.011259831
1402 0.011205143
1403 0.011151659
1404 0.01109933
1405 0.011048155
1406 0.010998084
1407 0.010949068
1408 0.010901157
1409 0.010854251
1410 0.010808349
1411 0.010763452
1412 0.010719562
1413 0.010676576
1414 0.010634495
1415 0.010593371
1416 0.0105531
1417 0.010513687
1418 0.010475177
1419 0.010437424
1420 0.010400526
1421 0.010364384
1422 0.010329047
1423 0.010294466
1424 0.010260641
1425 0.010227571
1426 0.010195157
1427 0.010163498
1428 0.010132495
1429 0.010102147
1430 0.010072505
1431 0.010043468
1432 0.010015087
1433 0.0099873124
1434 0.0099601923
1435 0.0099336272
1436 0.0099076685
1437 0.0098823151
1438 0.0098574655
1439 0.0098332232
1440 0.0098094847
1441 0.0097863022
1442 0.0097636757
1443 0.0097415028
1444 0.0097198859
1445 0.0096987747
1446 0.009678117
1447 0.009657966
1448 0.0096382694
1449 0.0096190777
1450 0.009600291
1451 0.0095820092
1452 0.0095641324
1453 0.0095467102
1454 0.0095296931
1455 0.0095131304
1456 0.0094969217
1457 0.0094811693
1458 0.0094658202
1459 0.0094508259
1460 0.009436287
1461 0.009422102
1462 0.0094082719
1463 0.0093947956
1464 0.0093817236
1465 0.0093690064
1466 0.009356644
1467 0.0093446346
1468 0.009332981
1469 0.00932163
1470 0.0093106339
1471 0.0092999926
1472 0.0092896549
1473 0.0092796208
1474 0.0092699416
1475 0.009260566
1476 0.0092514427
1477 0.0092426753
1478 0.0092342114
1479 0.0092260512
1480 0.0092181442
1481 0.0092105418
1482 0.0092032431
1483 0.0091961976
1484 0.0091894558
1485 0.0091829682
1486 0.009176733
1487 0.0091708023
1488 0.009165125
1489 0.0091597009
1490 0.0091545312
1491 0.0091496138
1492 0.0091449497
1493 0.0091405902
1494 0.0091364337
1495 0.0091324793
1496 0.0091288295
1497 0.0091253817
1498 0.0091221882
1499 0.0091191968
1500 0.0091164596
1501 0.0091139749
1502 0.0091116941
1503 0.0091096153
1504 0.00910779
1505 0.0091061676
1506 0.0091047483
1507 0.0091035822
1508 0.0091026193
1509 0.0091018584
1510 0.0091013005
1511 0.0091009457
1512 0.0091007939
1513 0.0091008442
1514 0.0091010984
1515 0.0091015548
1516 0.0091022132
1517 0.0091030756
1518 0.0091040889
1519 0.0091053564
1520 0.0091067767
1521 0.0091083981
1522 0.0091101732
1523 0.0091122007
1524 0.0091143809
1525 0.009116713
1526 0.009119248
1527 0.0091219852
1528 0.0091248751
1529 0.0091279671
1530 0.0091312118
1531 0.0091346586
1532 0.0091382582
1533 0.0091420095
1534 0.0091459639
1535 0.0091500701
1536 0.0091543784
1537 0.0091588395
1538 0.0091634523
1539 0.0091682682
1540 0.0091731846
1541 0.009178305
1542 0.0091835763
1543 0.0091890506
1544 0.0091946265
1545 0.0092004044
1546 0.0092063351
1547 0.0092124175
1548 0.0092186518
1549 0.0092250882
1550 0.009231627
1551 0.0092383167
1552 0.0092452094
1553 0.0092522036
1554 0.0092594
1555 0.0092666978
1556 0.0092741977
1557 0.0092818001
1558 0.0092895534
1559 0.0092975097
1560 0.0093055665
1561 0.0093138264
1562 0.0093221879
1563 0.0093307002
1564 0.0093393652
1565 0.009348182
1566 0.0093570994
1567 0.0093662199
1568 0.0093754921
1569 0.0093848649
1570 0.0093943896
1571 0.009404067
1572 0.0094138952
1573 0.0094238752
1574 0.0094339568
1575 0.0094441902
1576 0.0094545744
1577 0.0094651114
1578 0.0094757993
1579 0.0094865886
1580 0.0094975298
1581 0.0095086228
1582 0.0095198667
1583 0.009531212
1584 0.0095427092
1585 0.0095543573
1586 0.0095661581
1587 0.0095780594
1588 0.0095901117
1589 0.0096023167
1590 0.0096146725
1591 0.009627129
1592 0.0096397372
1593 0.0096524972
1594 0.0096653579
1595 0.0096783703
1596 0.0096915346
1597 0.0097047994
1598 0.0097182151
1599 0.0097317826
1600 0.0097455019
1601 0.0097593218
1602 0.0097732935
1603 0.0097873649
1604 0.009801589
1605 0.0098159639
1606 0.0098304898
1607 0.0098451171
1608 0.0098598953
1609 0.0098748244
1610 0.009889855
1611 0.0099050365
1612 0.0099203698
1613 0.009935854
1614 0.0099514388
1615 0.0099671241
1616 0.0099830115
1617 0.0099989995
1618 0.010015138
1619 0.010031428
1620 0.010047819
1621 0.010064362
1622 0.010081003
1623 0.010097848
1624 0.010114793
1625 0.010131888
1626 0.010149084
1627 0.010166432
1628 0.01018393
1629 0.010201579
1630 0.010219329
1631 0.01023728
1632 0.010255281
1633 0.010273484
1634 0.010291787
1635 0.01031024
1636 0.010328845
1637 0.010347601
1638 0.010366457
1639 0.010385463
1640 0.010404621
1641 0.010423929
1642 0.010443388
1643 0.010462947
1644 0.010482658
1645 0.010502518
1646 0.010522529
1647 0.010542641
1648 0.010562954
1649 0.010583366
1650 0.01060393
1651 0.010624643
1652 0.010645458
1653 0.010666473
1654 0.010687639
1655 0.010708904
1656 0.010730321
1657 0.010751887
1658 0.010773604
1659 0.010795471
1660 0.01081749
1661 0.010839658
1662 0.010861976
1663 0.010884394
1664 0.010907014
1665 0.010929783
1666 0.010952652
1667 0.010975722
1668 0.010998942
1669 0.011022262
1670 0.011045783
1671 0.011069403
1672 0.011093223
1673 0.011117195
1674 0.011141315
1675 0.011165586
1676 0.011190007
1677 0.011214578
1678 0.011239299
1679 0.01126417
1680 0.011289191
1681 0.011314412
1682 0.011339782
1683 0.011365303
1684 0.011390974
1685 0.011416794
1686 0.011442764
1687 0.011468934
1688 0.011495254
1689 0.011521723
1690 0.011548392
1691 0.011575161
1692 0.01160218
1693 0.011629298
1694 0.011656617
1695 0.011684034
1696 0.011711701
1697 0.011739467
1698 0.011767484
1699 0.0117956
1700 0.011823915
1701 0.01185238
1702 0.011881044
1703 0.011909857
1704 0.01193887
1705 0.011968032
1706 0.011997394
1707 0.012026905
1708 0.012056615
1709 0.012086474
1710 0.012116533
1711 0.012146791
1712 0.012177197
1713 0.012207753
1714 0.012238557
1715 0.012269512
1716 0.012300665
1717 0.012331966
1718 0.012363467
1719 0.012395167
1720 0.012427066
1721 0.012459113
1722 0.01249141
1723 0.012523854
1724 0.012556498
1725 0.01258934
1726 0.012622331
1727 0.012655571
1728 0.012689009
1729 0.012722596
1730 0.012756431
1731 0.012790415
1732 0.012824646
1733 0.012859027
1734 0.012893655
1735 0.012928482
1736 0.012963458
1737 0.012998681
1738 0.013034103
1739 0.013069772
1740 0.01310559
1741 0.013141655
1742 0.013177919
1743 0.01321438
1744 0.01325109
1745 0.013287998
1746 0.013325103
1747 0.013362455
1748 0.013400006
1749 0.013437754
1750 0.01347575
1751 0.013513942
1752 0.013552384
1753 0.013591072
1754 0.013629956
1755 0.013669089
1756 0.013708419
1757 0.013747996
1758 0.01378782
1759 0.013827842
1760 0.013868109
1761 0.013908625
1762 0.013949387
1763 0.013990345
1764 0.014031601
1765 0.014073053
1766 0.014114752
1767 0.014156748
1768 0.014198939
1769 0.014241378
1770 0.014284062
1771 0.014327044
1772 0.014370221
1773 0.014413694
1774 0.014457413
1775 0.014501378
1776 0.01454559
1777 0.014590097
1778 0.014634849
1779 0.014679898
1780 0.014725141
1781 0.01477073
1782 0.014816516
1783 0.014862646
1784 0.014909022
1785 0.014955642
1786 0.015002558
1787 0.015049769
1788 0.015097224
1789 0.015145024
1790 0.015193069
1791 0.015241409
1792 0.015289993
1793 0.015338922
1794 0.015388145
1795 0.015437611
1796 0.015487423
1797 0.015537528
1798 0.015587928
1799 0.01563862
1800 0.015689608
1801 0.015740937
1802 0.01579256
1803 0.015844477
1804 0.015896687
1805 0.01594929
1806 0.016002137
1807 0.016055327
1808 0.016108857
1809 0.016162733
1810 0.0162169
1811 0.016271409
1812 0.01632621
1813 0.016381403
1814 0.01643689
1815 0.016492767
1816 0.016548935
1817 0.016605496
1818 0.016662348
1819 0.016719591
1820 0.016777176
1821 0.016835101
1822 0.016893417
1823 0.016952073
1824 0.017011071
1825 0.017070457
1826 0.017130185
1827 0.017190354
1828 0.01725081
1829 0.017311707
1830 0.017372943
1831 0.017434619
1832 0.017496634
1833 0.017559038
1834 0.01762183
1835 0.017685061
1836 0.01774863
1837 0.017812638
1838 0.017877033
1839 0.017941866
1840 0.018007087
1841 0.018072695
1842 0.01813874
1843 0.018205222
1844 0.018272139
1845 0.018339446
1846 0.018407186
1847 0.018475363
1848 0.018544026
1849 0.018613076
1850 0.018682608
1851 0.018752528
1852 0.018822981
1853 0.018893819
1854 0.018965142
1855 0.019036949
1856 0.019109188
1857 0.019181911
1858 0.019255118
1859 0.019328808
1860 0.019402979
1861 0.019477634
1862 0.019552771
1863 0.019628389
1864 0.019704537
1865 0.019781169
1866 0.01985833
1867 0.019935973
1868 0.020014144
1869 0.020092847
1870 0.020172076
1871 0.020251788
1872 0.020332078
1873 0.020412894
1874 0.02049429
1875 0.020576213
1876 0.020658663
1877 0.02074169
1878 0.020825244
1879 0.020909423
1880 0.020994129
1881 0.02107946
1882 0.021165365
1883 0.021251796
1884 0.021338899
1885 0.021426577
1886 0.021514827
1887 0.021603702
1888 0.021693196
1889 0.021783313
1890 0.021874052
1891 0.021965411
1892 0.02205744
1893 0.02215009
1894 0.022243407
1895 0.022337344
1896 0.022431949
1897 0.022527272
1898 0.022623211
1899 0.022719868
1900 0.022817189
1901 0.022915175
1902 0.023013927
1903 0.023113344
1904 0.023213472
1905 0.023314314
1906 0.023415869
1907 0.023518184
1908 0.023621261
1909 0.023725048
1910 0.023829594
1911 0.023934899
1912 0.024040962
1913 0.024147831
1914 0.024255458
1915 0.02436389
1916 0.024473127
1917 0.024583168
1918 0.024694014
1919 0.024805661
1920 0.024918161
1921 0.025031511
1922 0.025145661
1923 0.025260709
1924 0.025376607
1925 0.025493402
1926 0.025611043
1927 0.025729578
1928 0.025849009
1929 0.025969382
1930 0.02609065
1931 0.026212856
1932 0.026335955
1933 0.026460042
1934 0.026585067
1935 0.026711078
1936 0.026838027
1937 0.026966009
1938 0.027094927
1939 0.027224874
1940 0.027355853
1941 0.027487863
1942 0.027620899
1943 0.027754964
1944 0.027890153
1945 0.028026368
1946 0.028163657
1947 0.028302064
1948 0.028441545
1949 0.028582143
1950 0.028723907
1951 0.028866788
1952 0.029010832
1953 0.02915604
1954 0.029302407
1955 0.029449984
1956 0.029598769
1957 0.029748758
1958 0.029900001
1959 0.030052496
1960 0.030206243
1961 0.030361237
1962 0.030517526
1963 0.03067516
1964 0.030834086
1965 0.030994304
1966 0.031155907
1967 0.031318896
1968 0.031483222
1969 0.031648926
1970 0.03181611
1971 0.031984672
1972 0.032154657
1973 0.032326117
1974 0.03249909
1975 0.032673534
1976 0.032849491
1977 0.03302696
1978 0.03320599
1979 0.033386573
1980 0.03356871
1981 0.033752497
1982 0.033937879
1983 0.034124956
1984 0.034313627
1985 0.03450403
1986 0.034696072
1987 0.034889892
1988 0.03508544
1989 0.035282716
1990 0.035481807
1991 0.035682719
1992 0.035885442
1993 0.036090024
1994 0.036296461
1995 0.03650485
1996 0.036715135
1997 0.036927361
1998 0.037141528
1999 0.037357729
2000 0.03757596
2001 0.037796214
2002 0.03801854
2003 0.038242981
2004 0.038469531
2005 0.038698286
2006 0.038929142
2007 0.039162289
2008 0.039397631
2009 0.039635252
2010 0.039875153
2011 0.040117424
2012 0.04036206
2013 0.040609054
2014 0.040858503
2015 0.0411104
2016 0.041364737
2017 0.041621655
2018 0.041881148
2019 0.042143162
2020 0.042407885
2021 0.042675212
2022 0.042945284
2023 0.04321805
2024 0.04349364
2025 0.043772005
2026 0.04405323
2027 0.044337362
2028 0.044624433
2029 0.044914495
2030 0.04520753
2031 0.045503683
2032 0.04580294
2033 0.046105295
2034 0.046410885
2035 0.046719745
2036 0.047031868
2037 0.0473473
2038 0.047666166
2039 0.047988459
2040 0.048314217
2041 0.048643529
2042 0.048976433
2043 0.049313005
2044 0.049653292
2045 0.049997278
2046 0.050345141
2047 0.050696827
2048 0.051052466
2049 0.051412087
2050 0.051775776
2051 0.052143618
2052 0.052515596
2053 0.052891839
2054 0.053272381
2055 0.053657304
2056 0.054046687
2057 0.05444061
2058 0.054839101
2059 0.055242285
2060 0.055650201
2061 0.056062918
2062 0.056480564
2063 0.056903165
2064 0.057330847
2065 0.057763685
2066 0.0582017
2067 0.05864507
2068 0.059093859
2069 0.059548099
2070 0.060007952
2071 0.060473487
2072 0.060944781
2073 0.06142199
2074 0.061905138
2075 0.062394388
2076 0.062889852
2077 0.063391596
2078 0.063899733
2079 0.064414367
2080 0.064935669
2081 0.065463684
2082 0.065998621
2083 0.066540547
2084 0.06708955
2085 0.06764584
2086 0.068209521
2087 0.068780683
2088 0.069359481
2089 0.069946148
2090 0.070540696
2091 0.071143344
2092 0.071754247
2093 0.072373547
2094 0.073001362
2095 0.073637933
2096 0.074283391
2097 0.074937865
2098 0.075601578
2099 0.076274745
2100 0.076957457
2101 0.077649958
2102 0.078352422
2103 0.079065062
2104 0.079788081
2105 0.08052168
2106 0.081266068
2107 0.082021482
2108 0.08278808
2109 0.083566181
2110 0.084356025
2111 0.085157752
2112 0.085971676
2113 0.086798072
2114 0.087637149
2115 0.088489227
2116 0.089354552
2117 0.09023343
2118 0.091126099
2119 0.092032902
2120 0.092954151
2121 0.093890138
2122 0.094841212
2123 0.095807694
2124 0.096789926
2125 0.097788252
2126 0.098803051
2127 0.099834658
2128 0.10088352
2129 0.10194996
2130 0.10303444
2131 0.10413738
2132 0.10525912
2133 0.10640023
2134 0.10756106
2135 0.10874217
2136 0.10994396
2137 0.11116699
2138 0.11241174
2139 0.1136787
2140 0.11496849
2141 0.11628162
2142 0.11761872
2143 0.11898033
2144 0.12036709
2145 0.12177966
2146 0.12321864
2147 0.12468469
2148 0.12617861
2149 0.12770106
2150 0.12925273
2151 0.13083445
2152 0.13244702
2153 0.13409123
2154 0.13576794
2155 0.13747801
2156 0.13922232
2157 0.14100187
2158 0.14281757
2159 0.14467046
2160 0.14656152
2161 0.14849181
2162 0.15046257
2163 0.15247478
2164 0.15452969
2165 0.15662853
2166 0.1587726
2167 0.16096319
2168 0.16320162
2169 0.16548938
2170 0.16782786
2171 0.17021866
2172 0.1726633
2173 0.17516345
2174 0.17772074
2175 0.18033703
2176 0.18301409
2177 0.18575382
2178 0.18855821
2179 0.19142926
2180 0.19436917
2181 0.1973801
2182 0.2004644
2183 0.20362441
2184 0.20686263
2185 0.21018168
2186 0.21358418
2187 0.21707305
2188 0.22065106
2189 0.22432142
2190 0.22808714
2191 0.23195167
2192 0.23591837
2193 0.23999083
2194 0.24417283
2195 0.24846824
2196 0.25288114
2197 0.2574158
2198 0.26207674
2199 0.26686847
2200 0.27179593
2201 0.27686414
2202 0.2820785
2203 0.2874445
2204 0.29296795
2205 0.29865494
2206 0.30451185
2207 0.31054536
2208 0.31676239
2209 0.32317033
2210 0.32977691
2211 0.33659017
2212 0.34361857
2213 0.350871
2214 0.35835677
2215 0.36608583
2216 0.37406838
2217 0.3823154
2218 0.39083821
2219 0.39964899
2220 0.40876043
2221 0.41818586
2222 0.42793953
2223 0.43803641
2224 0.44849214
2225 0.45932344
2226 0.47054809
2227 0.48218471
2228 0.49425313
2229 0.50677449
2230 0.51977098
2231 0.53326648
2232 0.54728621
2233 0.5618571
2234 0.57700795
2235 0.59276927
2236 0.60917395
2237 0.62625706
2238 0.64405632
2239 0.66261208
2240 0.68196785
2241 0.70217061
2242 0.72327071
2243 0.74532318
2244 0.76838732
2245 0.79252738
2246 0.81781375
2247 0.84432298
2248 0.87213886
2249 0.90135318
2250 0.93206692
2251 0.96439135
2252 0.99844939
2253 1.0343772
2254 1.0723253
2255 1.1124616
2256 1.154972
2257 1.2000629
2258 1.2479633
2259 1.2989252
2260 1.3532225
2261 1.4111482
2262 1.4730036
2263 1.5390782
2264 1.6096078
2265 1.684698
2266 1.7641839
2267 1.8473816
2268 1.9326761
2269 2.0168986
2270 2.0945897
2271 2.1576433
2272 2.1964324
2273 2.2032876
2274 2.1766961
2275 2.1222682
2276 2.0493834
2277 1.9670261
2278 1.8817334
2279 1.7975135
2280 1.7165238
2281 1.6397647
2282 1.5675759
2283 1.4999422
2284 1.436671
2285 1.3774915
2286 1.3221064
2287 1.2702206
2288 1.2215545
2289 1.1758496
2290 1.1328697
2291 1.0924021
2292 1.0542545
2293 1.0182537
2294 0.98424417
2295 0.95208555
2296 0.92165136
2297 0.8928268
2298 0.86550802
2299 0.83960056
2300 0.81501824
2301 0.79168254
2302 0.7695213
2303 0.74846846
2304 0.72846305
2305 0.70944911
2306 0.69137466
2307 0.67419171
2308 0.65785581
2309 0.64232558
2310 0.62756252
2311 0.61353081
2312 0.6001972
2313 0.58753037
2314 0.57550114
2315 0.56408232
2316 0.55324835
2317 0.54297537
2318 0.53324103
2319 0.52402431
2320 0.51530552
2321 0.50706625
2322 0.49928918
2323 0.49195817
2324 0.48505798
2325 0.47857451
2326 0.4724943
2327 0.46680501
2328 0.46149498
2329 0.45655337
2330 0.45197013
2331 0.44773582
2332 0.44384179
2333 0.44027993
2334 0.43704283
2335 0.43412367
2336 0.43151617
2337 0.42921469
2338 0.42721412
2339 0.42550975
2340 0.42409754
2341 0.42297393
2342 0.4221358
2343 0.42158046
2344 0.42130587
2345 0.42131028
2346 0.42159253
2347 0.42215186
2348 0.42298797
2349 0.42410102
2350 0.42549169
2351 0.42716098
2352 0.42911059
2353 0.43134233
2354 0.43385887
2355 0.43666315
2356 0.43975857
2357 0.44314927
2358 0.44683951
2359 0.45083454
2360 0.45513976
2361 0.45976144
2362 0.46470624
2363 0.46998152
2364 0.47559524
2365 0.48155606
2366 0.48787329
2367 0.49455702
2368 0.50161809
2369 0.50906807
2370 0.51691955
2371 0.525186
2372 0.53388166
2373 0.54302192
2374 0.55262333
2375 0.56270355
2376 0.57328141
2377 0.58437723
2378 0.59601259
2379 0.60821092
2380 0.62099683
2381 0.63439727
2382 0.64844066
2383 0.66315818
2384 0.67858273
2385 0.69475013
2386 0.71169877
2387 0.72947031
2388 0.74810964
2389 0.76766539
2390 0.78819036
2391 0.80974191
2392 0.8323825
2393 0.85618031
2394 0.88120979
2395 0.9075526
2396 0.93529832
2397 0.96454567
2398 0.99540359
2399 1.0279922
2400 1.062445
2401 1.0989101
2402 1.1375518
2403 1.178553
2404 1.2221169
2405 1.2684692
2406 1.3178586
2407 1.3705567
2408 1.4268557
2409 1.4870592
2410 1.5514654
2411 1.6203301
2412 1.6938007
2413 1.7717912
2414 1.8537625
2415 1.9383497
2416 2.0227849
2417 2.1021614
2418 2.1689236
2419 2.2135663
2420 2.2276287
2421 2.2080483
2422 2.1590965
2423 2.0897493
2424 2.0093501
2425 1.9250305
2426 1.8413107
2427 1.7607003
2428 1.6844205
2429 1.6129451
2430 1.546343
2431 1.4844788
2432 1.4271247
2433 1.3740214
2434 1.3249104
2435 1.2795503
2436 1.2377242
2437 1.1992419
2438 1.1639413
2439 1.1316869
2440 1.102369
2441 1.0759016
2442 1.0522221
2443 1.0312896
2444 1.0130841
2445 0.9976058
2446 0.98487526
2447 0.97493237
2448 0.96783692
2449 0.9636687
2450 0.96252787
2451 0.96453512
2452 0.9698329
2453 0.97858572
2454 0.99098116
2455 1.0072304
2456 1.0275692
2457 1.0522578
2458 1.0815799
2459 1.115841
2460 1.1553614
2461 1.2004638
2462 1.2514492
2463 1.3085505
2464 1.3718469
2465 1.4411119
2466 1.5155452
2467 1.5933321
2468 1.6709952
2469 1.7426667
2470 1.7998608
2471 1.8329022
2472 1.8346806
2473 1.8046446
2474 1.7491115
2475 1.6775434
2476 1.5985756
2477 1.5182965
2478 1.4403396
2479 1.366594
2480 1.2978767
2481 1.2344007
2482 1.1760604
2483 1.1225955
2484 1.0736828
2485 1.028984
2486 0.98817176
2487 0.95094174
2488 0.91701734
2489 0.88615155
2490 0.85812557
2491 0.83274812
2492 0.8098532
2493 0.789298
2494 0.77096123
2495 0.75474143
2496 0.74055576
2497 0.7283383
2498 0.71803969
2499 0.70962572
2500 0.70307732
2501 0.69838953
2502 0.69557208
2503 0.69464856
2504 0.69565701
2505 0.69865012
2506 0.7036953
2507 0.71087569
2508 0.72029072
2509 0.73205668
2510 0.74630809
2511 0.76319873
2512 0.7829026
2513 0.80561578
2514 0.83155727
2515 0.86097026
2516 0.89412302
2517 0.93130815
2518 0.97284085
2519 1.0190518
2520 1.0702746
2521 1.1268187
2522 1.1889194
2523 1.2566454
2524 1.3297329
2525 1.4072967
2526 1.4873607
2527 1.566183
2528 1.6375486
2529 1.6926954
2530 1.7220685
2531 1.719316
2532 1.6849799
2533 1.6261231
2534 1.5523112
2535 1.4718879
2536 1.3905791
2537 1.3117367
2538 1.2370685
2539 1.1672858
2540 1.1025413
2541 1.0426948
2542 0.98746449
2543 0.9365111
2544 0.88948214
2545 0.8460353
2546 0.80584913
2547 0.76862788
2548 0.73410219
2549 0.70202857
2550 0.67218739
2551 0.64438105
2552 0.61843193
2553 0.59418005
2554 0.57148176
2555 0.55020732
2556 0.53023988
2557 0.51147395
2558 0.49381405
2559 0.47717378
2560 0.46147484
2561 0.44664603
2562 0.43262273
2563 0.419346
2564 0.40676218
2565 0.39482227
2566 0.38348147
2567 0.37269875
2568 0.36243653
2569 0.3526603
2570 0.34333843
2571 0.33444172
2572 0.32594335
2573 0.31781852
2574 0.31004444
2575 0.3026
2576 0.29546553
2577 0.28862306
2578 0.2820558
2579 0.27574819
2580 0.26968569
2581 0.26385486
2582 0.2582432
2583 0.25283903
2584 0.24763143
2585 0.24261029
2586 0.23776603
2587 0.23308982
2588 0.22857331
2589 0.22420868
2590 0.2199887
2591 0.21590643
2592 0.21195546
2593 0.2081297
2594 0.20442343
2595 0.20083138
2596 0.19734839
2597 0.1939697
2598 0.19069086
2599 0.1875076
2600 0.18441586
2601 0.18141189
2602 0.17849204
2603 0.17565298
2604 0.17289138
2605 0.17020428
2606 0.16758873
2607 0.16504195
2608 0.16256142
2609 0.16014455
2610 0.15778898
2611 0.1554925
2612 0.15325294
2613 0.15106827
2614 0.14893654
2615 0.14685589
2616 0.14482456
2617 0.14284086
2618 0.14090315
2619 0.13900988
2620 0.13715962
2621 0.13535091
2622 0.13358243
2623 0.13185287
2624 0.13016097
2625 0.1285056
2626 0.12688561
2627 0.12529987
2628 0.12374736
2629 0.12222707
2630 0.12073802
2631 0.11927929
2632 0.11785003
2633 0.1164493
2634 0.11507634
2635 0.11373034
2636 0.11241054
2637 0.11111621
2638 0.1098466
2639 0.10860112
2640 0.107379
2641 0.10617969
2642 0.10500255
2643 0.103847
2644 0.10271244
2645 0.10159839
2646 0.10050423
2647 0.099429533
2648 0.098373726
2649 0.097336404
2650 0.096317045
2651 0.095315248
2652 0.094330542
2653 0.093362525
2654 0.092410833
2655 0.09147501
2656 0.090554684
2657 0.089649506
2658 0.088759154
2659 0.087883204
2660 0.087021381
2661 0.086173341
2662 0.085338779
2663 0.084517397
2664 0.083708853
2665 0.082912914
2666 0.082129307
2667 0.081357688
2668 0.080597848
2669 0.079849556
2670 0.079112485
2671 0.078386486
2672 0.07767126
2673 0.076966561
2674 0.076272272
2675 0.075588048
2676 0.07491377
2677 0.074249223
2678 0.073594145
2679 0.072948448
2680 0.072311878
2681 0.071684204
2682 0.071065329
2683 0.070455082
2684 0.069853239
2685 0.069259688
2686 0.068674222
2687 0.06809672
2688 0.067527004
2689 0.066964924
2690 0.066410385
2691 0.065863185
2692 0.065323181
2693 0.064790308
2694 0.064264417
2695 0.063745305
2696 0.063232914
2697 0.062727086
2698 0.062227763
2699 0.061734777
2700 0.061248019
2701 0.060767427
2702 0.060292784
2703 0.059824124
2704 0.059361231
2705 0.058904037
2706 0.058452472
2707 0.058006417
2708 0.057565752
2709 0.057130449
2710 0.056700345
2711 0.056275405
2712 0.055855516
2713 0.055440642
2714 0.055030614
2715 0.054625407
2716 0.054224934
2717 0.053829126
2718 0.0534379
2719 0.053051181
2720 0.052668884
2721 0.05229098
2722 0.051917337
2723 0.051547926
2724 0.05118271
2725 0.050821517
2726 0.050464399
2727 0.050111234
2728 0.049761981
2729 0.049416609
2730 0.049074981
2731 0.048737064
2732 0.048402868
2733 0.048072264
2734 0.047745205
2735 0.047421664
2736 0.047101598
2737 0.046784919
2738 0.046471596
2739 0.046161581
2740 0.045854837
2741 0.045551281
2742 0.045250919
2743 0.044953614
2744 0.044659425
2745 0.04436826
2746 0.044080079
2747 0.0437948
2748 0.043512467
2749 0.043233
2750 0.042956308
2751 0.042682439
2752 0.042411312
2753 0.042142835
2754 0.041877057
2755 0.04161394
2756 0.041353393
2757 0.041095376
2758 0.040839888
2759 0.040586893
2760 0.040336393
2761 0.040088296
2762 0.039842561
2763 0.039599195
2764 0.039358146
2765 0.039119426
2766 0.038882941
2767 0.038648743
2768 0.038416695
2769 0.038186844
2770 0.037959151
2771 0.037733566
2772 0.037510097
2773 0.037288651
2774 0.03706928
2775 0.036851939
2776 0.03663658
2777 0.036423162
2778 0.036211688
2779 0.036002159
2780 0.035794485
2781 0.035588715
2782 0.035384756
2783 0.035182659
2784 0.034982327
2785 0.034783769
2786 0.034586985
2787 0.034391932
2788 0.034198605
2789 0.034006964
2790 0.033817012
2791 0.033628702
2792 0.033441987
2793 0.033256918
2794 0.033073451
2795 0.032891538
2796 0.032711182
2797 0.032532383
2798 0.032355092
2799 0.032179322
2800 0.032005016
2801 0.031832181
2802 0.031660818
2803 0.031490877
2804 0.031322315
2805 0.031155184
2806 0.030989483
2807 0.030825067
2808 0.030662086
2809 0.030500393
2810 0.030340042
2811 0.030180983
2812 0.030023219
2813 0.029866751
2814 0.029711531
2815 0.029557563
2816 0.029404845
2817 0.029253382
2818 0.029103076
2819 0.028953977
2820 0.028806085
2821 0.028659355
2822 0.028513789
2823 0.028369337
2824 0.02822605
2825 0.02808388
2826 0.027942829
2827 0.027802849
2828 0.027663989
2829 0.027526155
2830 0.027389443
2831 0.027253758
2832 0.0271191
2833 0.02698547
2834 0.02685287
2835 0.026721254
2836 0.026590668
2837 0.026461065
2838 0.026332447
2839 0.026204767
2840 0.026078071
2841 0.025952315
2842 0.025827497
2843 0.02570362
2844 0.025580635
2845 0.025458543
2846 0.025337392
2847 0.025217136
2848 0.025097728
2849 0.024979213
2850 0.024861548
2851 0.024744779
2852 0.024628811
2853 0.024513694
2854 0.024399426
2855 0.024285959
2856 0.024173345
2857 0.024061486
2858 0.023950478
2859 0.023840228
2860 0.023730734
2861 0.023622045
2862 0.023514163
2863 0.02340699
2864 0.023300575
2865 0.02319492
2866 0.023090025
2867 0.022985842
2868 0.022882368
2869 0.022779608
2870 0.02267761
2871 0.022576276
2872 0.022475656
2873 0.022375699
2874 0.022276459
2875 0.022177884
2876 0.022079976
2877 0.021982735
2878 0.021886162
2879 0.021790257
2880 0.021694969
2881 0.021600302
2882 0.021506352
2883 0.021412974
2884 0.021320218
2885 0.021228082
2886 0.021136567
2887 0.021045676
2888 0.020955404
2889 0.020865658
2890 0.020776585
2891 0.020688035
2892 0.02060011
2893 0.020512709
2894 0.020425934
2895 0.020339685
2896 0.020254012
2897 0.020168865
2898 0.020084294
2899 0.020000301
2900 0.019916786
2901 0.019833848
2902 0.019751439
2903 0.019669557
2904 0.019588156
2905 0.019507334
2906 0.019426992
2907 0.019347178
2908 0.019267846
2909 0.019188995
2910 0.019110674
2911 0.019032834
2912 0.018955477
2913 0.018878652
2914 0.018802257
2915 0.018726347
2916 0.018650869
2917 0.018575924
2918 0.01850141
2919 0.018427333
2920 0.018353738
2921 0.018280627
2922 0.018207902
2923 0.018135661
2924 0.018063854
2925 0.017992483
2926 0.017921498
2927 0.017850997
2928 0.017780934
2929 0.017711256
2930 0.017642014
2931 0.017573157
2932 0.017504741
2933 0.017436758
2934 0.017369164
2935 0.017301956
2936 0.017235138
2937 0.017168755
2938 0.017102713
2939 0.017037107
2940 0.01697184
2941 0.016907012
2942 0.016842522
2943 0.016778421
2944 0.016714709
2945 0.016651338
2946 0.016588354
2947 0.016525762
2948 0.016463509
2949 0.016401595
2950 0.016340071
2951 0.016278889
2952 0.016218046
2953 0.016157545
2954 0.016097434
2955 0.016037613
2956 0.015978185
2957 0.015919046
2958 0.01586025
2959 0.015801797
2960 0.015743682
2961 0.015685912
2962 0.015628433
2963 0.015571294
2964 0.015514449
2965 0.015457947
2966 0.015401736
2967 0.015345869
2968 0.015290293
2969 0.015235061
2970 0.015180121
2971 0.015125475
2972 0.015071122
2973 0.015017061
2974 0.014963295
2975 0.014909872
2976 0.014856692
2977 0.014803806
2978 0.014751215
2979 0.014698916
2980 0.014646912
2981 0.014595153
2982 0.014543736
2983 0.014492515
2984 0.014441638
2985 0.014391006
2986 0.014340668
2987 0.014290575
2988 0.014240727
2989 0.014191173
2990 0.014141914
2991 0.014092901
2992 0.014044132
2993 0.013995609
2994 0.013947331
2995 0.013899349
2996 0.013851612
2997 0.01380412
2998 0.013756874
2999 0.013709874
3000 0.013663119
3001 0.01361661
3002 0.013570348
3003 0.013524331
3004 0.01347856
3005 0.013432985
3006 0.013387657
3007 0.013342625
3008 0.013297739
3009 0.01325315
3010 0.013208756
3011 0.01316461
3012 0.01312066
3013 0.013076956
3014 0.01303345
3015 0.01299019
3016 0.012947126
3017 0.01290431
3018 0.01286169
3019 0.012819318
3020 0.012777143
3021 0.012735165
3022 0.012693384
3023 0.01265185
3024 0.012610513
3025 0.012569373
3026 0.012528432
3027 0.012487687
3028 0.01244719
3029 0.01240684
3030 0.012366738
3031 0.012326784
3032 0.012287077
3033 0.012247517
3034 0.012208206
3035 0.012169042
3036 0.012130076
3037 0.012091358
3038 0.012052738
3039 0.012014366
3040 0.011976192
3041 0.011938165
3042 0.011900337
3043 0.011862657
3044 0.011825225
3045 0.011787942
3046 0.011750805
3047 0.011713918
3048 0.011677179
3049 0.011640589
3050 0.011604196
3051 0.011567952
3052 0.011531907
3053 0.01149601
3054 0.011460312
3055 0.011424761
3056 0.01138941
3057 0.011354207
3058 0.011319153
3059 0.011284297
3060 0.011249591
3061 0.011215032
3062 0.011180673
3063 0.011146411
3064 0.01111235
3065 0.011078487
3066 0.011044723
3067 0.011011107
3068 0.010977691
3069 0.010944423
3070 0.010911305
3071 0.010878336
3072 0.010845515
3073 0.010812843
3074 0.010780321
3075 0.010747948
3076 0.010715723
3077 0.010683648
3078 0.010651723
3079 0.010619946
3080 0.010588318
3081 0.010556839
3082 0.01052546
3083 0.010494281
3084 0.010463201
3085 0.010432268
3086 0.010401487
3087 0.010370854
3088 0.010340321
3089 0.010309937
3090 0.010279703
3091 0.010249618
3092 0.010219633
3093 0.010189796
3094 0.01016011
3095 0.010130573
3096 0.010101136
3097 0.010071797
3098 0.010042609
3099 0.01001357
3100 0.0099846814
3101 0.0099558914
3102 0.0099272011
3103 0.0098986607
3104 0.0098702703
3105 0.0098419785
3106 0.0098137874
3107 0.0097857453
3108 0.009757854
3109 0.0097300112
3110 0.0097023686
3111 0.0096747754
3112 0.0096473331
3113 0.0096200397
3114 0.009592846
3115 0.0095657529
3116 0.0095387585
3117 0.009511915
3118 0.0094851702
3119 0.0094585763
3120 0.0094320318
3121 0.0094056372
3122 0.0093793934
3123 0.0093531981
3124 0.0093271537
3125 0.0093012089
3126 0.0092753638
3127 0.0092496183
3128 0.0092240237
3129 0.0091984784
3130 0.0091730841
3131 0.0091477884
3132 0.0091225933
3133 0.0090974988
3134 0.0090725031
3135 0.0090476591
3136 0.0090228636
3137 0.0089982189
3138 0.0089736236
3139 0.0089491792
3140 0.0089248354
3141 0.0089005399
3142 0.0088763954
3143 0.0088523515
3144 0.0088283569
3145 0.0088045131
3146 0.0087807188
3147 0.0087570753
3148 0.0087334812
3149 0.0087100379
3150 0.008686645
3151 0.0086633516
3152 0.0086402092
3153 0.0086171161
3154 0.0085941236
3155 0.0085711805
3156 0.0085483883
3157 0.0085256463
3158 0.0085030552
3159 0.0084805135
3160 0.0084580723
3161 0.0084357308
3162 0.0084134396
3163 0.008391249
3164 0.008369159
3165 0.0083471686
3166 0.0083252797
3167 0.0083034392
3168 0.0082817003
3169 0.008260061
3170 0.0082385233
3171 0.0082170349
3172 0.008195647
3173 0.0081743589
3174 0.0081531219
3175 0.0081319846
3176 0.0081109479
3177 0.0080899615
3178 0.0080690747
3179 0.0080482895
3180 0.0080275545
3181 0.0080069192
3182 0.0079863342
3183 0.0079658497
3184 0.0079454659
3185 0.0079251323
3186 0.0079048993
3187 0.0078847157
3188 0.0078646336
3189 0.007844652
3190 0.0078247199
3191 0.007804838
3192 0.0077850572
3193 0.0077653769
3194 0.0077457465
3195 0.0077262172
3196 0.0077067376
3197 0.0076873591
3198 0.0076680304
3199 0.0076487521
3200 0.0076295743
3201 0.0076104975
3202 0.0075914706
3203 0.007572494
3204 0.0075536179
3205 0.0075347922
3206 0.0075160675
3207 0.0074973931
3208 0.0074787685
3209 0.0074602445
3210 0.0074417712
3211 0.0074233986
3212 0.0074050762
3213 0.0073868041
3214 0.0073686326
3215 0.0073505114
3216 0.0073324405
3217 0.0073144706
3218 0.007296551
3219 0.007278732
3220 0.007260913
3221 0.0072431946
3222 0.0072255773
3223 0.0072079594
3224 0.0071904426
3225 0.0071730274
3226 0.0071556107
3227 0.0071382956
3228 0.0071210307
3229 0.0071038161
3230 0.0070867026
3231 0.0070696394
3232 0.0070526265
3233 0.0070356638
3234 0.0070188022
3235 0.0070019402
3236 0.0069851791
3237 0.0069685197
3238 0.0069518592
3239 0.0069353003
3240 0.0069187409
3241 0.0069022826
3242 0.0068858746
3243 0.0068695676
3244 0.0068532606
3245 0.0068370542
3246 0.0068208985
3247 0.0068047936
3248 0.0067887385
3249 0.0067727338
3250 0.0067567797
3251 0.0067409268
3252 0.0067251245
3253 0.0067093214
3254 0.0066936198
3255 0.0066779689
3256 0.0066623678
3257 0.0066468688
3258 0.0066313688
3259 0.0066159195
3260 0.0066005713
3261 0.0065852227
3262 0.0065699755
3263 0.0065547791
3264 0.0065395818
3265 0.006524486
3266 0.006509441
3267 0.0064944462
3268 0.0064795017
3269 0.006464608
3270 0.0064497646
3271 0.0064349719
3272 0.0064202296
3273 0.0064055379
3274 0.0063908966
3275 0.0063763061
3276 0.0063617658
3277 0.0063472758
3278 0.006332837
3279 0.0063184481
3280 0.0063041104
3281 0.006289823
3282 0.0062755859
3283 0.0062613995
3284 0.0062472639
3285 0.0062331785
3286 0.006219144
3287 0.0062051597
3288 0.0061911754
3289 0.0061772927
3290 0.0061634602
3291 0.0061496277
3292 0.0061358963
3293 0.0061221649
3294 0.0061084842
3295 0.0060949051
3296 0.0060813255
3297 0.0060677961
3298 0.006054318
3299 0.0060408902
3300 0.0060275132
3301 0.0060141357
3302 0.0060008597
3303 0.0059875837
3304 0.0059744092
3305 0.0059612342
3306 0.00594811
3307 0.0059350366
3308 0.0059220139
3309 0.0059089903
3310 0.0058960691
3311 0.005883147
3312 0.0058702761
3313 0.0058574555
3314 0.0058446857
3315 0.0058319666
3316 0.0058192471
3317 0.0058066295
3318 0.0057940115
3319 0.0057814443
3320 0.0057689277
3321 0.005756462
3322 0.0057439958
3323 0.0057315803
3324 0.0057192664
3325 0.0057069012
3326 0.005694638
3327 0.0056824256
3328 0.0056702127
3329 0.005658051
3330 0.0056459396
3331 0.0056338278
3332 0.0056218179
3333 0.005609808
3334 0.0055978489
3335 0.0055859401
3336 0.0055740313
3337 0.0055621732
3338 0.0055503659
3339 0.0055386093
3340 0.0055268528
3341 0.0055151978
3342 0.0055035427
3343 0.0054918872
3344 0.0054803332
3345 0.0054687797
3346 0.0054572765
3347 0.0054457732
3348 0.0054343715
3349 0.0054229698
3350 0.0054116189
3351 0.0054002679
3352 0.0053889677
3353 0.0053777178
3354 0.0053665191
3355 0.0053553204
3356 0.0053441725
3357 0.0053330748
3358 0.0053219777
3359 0.0053109308
3360 0.0052999351
3361 0.0052889902
3362 0.0052780448
3363 0.0052671502
3364 0.0052562556
3365 0.0052454122
3366 0.0052346191
3367 0.0052238773
3368 0.0052131349
3369 0.0052024438
3370 0.0051917518
3371 0.0051811114
3372 0.0051705213
3373 0.0051599313
3374 0.0051494432
3375 0.0051389039
3376 0.0051284665
3377 0.0051180287
3378 0.0051075909
3379 0.0050972551
3380 0.0050868681
3381 0.005076583
3382 0.0050662975
3383 0.0050560632
3384 0.0050458284
3385 0.0050356449
3386 0.0050255121
3387 0.0050153788
3388 0.0050052968
3389 0.004995266
3390 0.0049852342
3391 0.004975203
3392 0.0049652732
3393 0.0049552922
3394 0.0049454137
3395 0.0049355347
3396 0.0049257069
3397 0.0049158786
3398 0.0049061012
3399 0.0048963237
3400 0.0048865974
3401 0.0048769219
3402 0.0048672459
3403 0.0048575699
3404 0.0048479964
3405 0.0048384224
3406 0.0048288479
3407 0.0048193247
3408 0.0048098015
3409 0.0048003802
3410 0.0047909077
3411 0.004781486
3412 0.0047721155
3413 0.0047627445
3414 0.0047534248
3415 0.0047441558
3416 0.0047348868
3417 0.0047256178
3418 0.0047163996
3419 0.0047072321
3420 0.0046980651
3421 0.0046888972
3422 0.0046798321
3423 0.0046707154
3424 0.0046617007
3425 0.0046526352
3426 0.0046436712
3427 0.0046346565
3428 0.0046257437
3429 0.0046167793
3430 0.0046079173
3431 0.0045990553
3432 0.0045901928
3433 0.0045813816
3434 0.0045725703
3435 0.0045638098
3436 0.0045550494
3437 0.0045463401
3438 0.0045376816
3439 0.0045290231
3440 0.0045203641
3441 0.0045117564
3442 0.0045031486
3443 0.0044945916
3444 0.0044860346
3445 0.0044775289
3446 0.0044690226
3447 0.0044605676
3448 0.0044521126
3449 0.0044437083
3450 0.0044353041
3451 0.0044269511
3452 0.0044185976
3453 0.0044102957
3454 0.004401993
3455 0.0043936907
3456 0.0043854392
3457 0.0043772389
3458 0.0043690382
3459 0.0043608374
3460 0.0043526879
3461 0.0043445383
3462 0.0043364395
3463 0.0043283408
3464 0.0043202932
3465 0.0043122456
3466 0.0043041976
3467 0.0042962008
3468 0.0042882548
3469 0.0042803092
3470 0.0042723631
3471 0.0042644679
3472 0.004256573
3473 0.004248729
3474 0.0042408849
3475 0.0042330408
3476 0.004225248
3477 0.0042174547
3478 0.0042097126
3479 0.0042019701
3480 0.0041942792
3481 0.0041865879
3482 0.0041789478
3483 0.0041712564
3484 0.0041636671
3485 0.004156027
3486 0.0041484889
3487 0.0041408995
3488 0.0041333609
3489 0.0041258223
3490 0.0041183354
3491 0.0041108476
3492 0.0041034115
3493 0.0040959753
3494 0.0040885387
3495 0.0040811533
3496 0.0040737679
3497 0.0040664333
3498 0.0040590991
3499 0.0040517645
3500 0.0040444811
##END=
